Time (ms),Bicep,Shoulder,Tricep
94343,462,460,463
94344,463,462,464
94345,464,461,462
94346,467,461,463
94347,470,459,462
94348,471,462,463
94349,470,461,463
94350,471,461,462
94351,475,462,462
94352,476,462,462
94353,474,461,460
94354,473,461,460
94355,472,461,462
94356,470,459,461
94357,468,462,463
94358,469,461,462
94359,463,462,463
94360,465,462,461
94361,464,461,461
94362,463,461,462
94363,464,461,463
94364,464,461,462
94365,465,458,463
94366,465,462,462
94367,464,460,462
94368,467,459,462
94369,468,461,461
94370,468,460,463
94371,468,462,464
94372,469,460,462
94373,467,461,463
94374,469,460,462
94375,467,460,460
94376,468,459,463
94377,466,461,462
94378,464,460,462
94379,464,459,462
94380,463,462,463
94381,465,460,463
94382,462,461,463
94383,461,461,459
94384,463,460,467
94385,460,462,464
94386,466,461,462
94387,463,461,463
94388,465,460,462
94389,464,462,463
94390,465,459,462
94391,466,460,462
94392,468,459,462
94393,469,461,461
94394,469,460,463
94395,468,461,462
94396,468,461,461
94397,467,462,463
94398,465,461,462
94399,464,459,462
94400,463,460,463
94401,463,459,463
94402,461,461,459
94403,463,461,463
94404,462,461,462
94405,464,459,463
94406,465,461,462
94407,465,461,460
94408,465,461,460
94409,467,461,461
94410,463,461,462
94411,469,460,462
94412,467,461,461
94413,469,462,460
94414,467,460,460
94415,468,462,462
94416,466,461,462
94417,465,460,460
94418,464,459,462
94419,462,460,462
94420,464,460,462
94421,462,459,462
94422,462,459,463
94423,462,460,462
94424,463,461,460
94425,463,460,463
94426,463,461,461
94427,465,462,462
94428,467,460,461
94429,466,460,463
94430,467,463,463
94431,467,461,461
94432,465,462,462
94433,467,461,463
94434,466,460,462
94435,468,460,462
94436,466,462,462
94437,466,462,461
94438,462,459,459
94439,464,461,462
94440,462,459,462
94441,462,462,460
94442,462,461,462
94443,462,461,462
94444,463,462,461
94445,464,461,462
94446,466,461,461
94447,463,460,462
94448,466,462,462
94449,468,461,463
94450,469,462,462
94451,470,460,461
94452,466,460,463
94453,469,460,461
94454,466,461,461
94455,463,460,462
94456,461,461,459
94457,462,459,463
94458,461,463,461
94459,459,459,462
94460,459,460,464
94461,457,460,462
94462,458,461,461
94463,460,461,462
94464,460,458,460
94465,459,460,463
94466,462,460,461
94467,462,462,461
94468,463,462,462
94469,464,462,461
94470,465,462,462
94471,465,462,461
94472,466,461,460
94473,466,460,461
94474,466,461,462
94475,465,460,461
94476,465,460,462
94477,464,460,463
94478,463,462,461
94479,461,461,462
94480,461,461,462
94481,460,462,462
94482,460,461,461
94483,461,462,461
94484,460,462,462
94485,461,461,463
94486,463,459,463
94487,463,461,461
94488,463,462,462
94489,465,461,461
94490,465,461,460
94491,465,457,461
94492,467,457,462
94493,466,461,462
94494,466,461,462
94495,464,461,461
94496,462,461,462
94497,465,461,461
94498,462,462,462
94499,460,460,460
94500,460,461,462
94501,457,461,461
94502,460,461,462
94503,461,460,463
94504,460,460,463
94505,461,460,461
94506,463,462,462
94507,464,461,463
94508,463,462,464
94509,469,462,463
94510,471,461,462
94511,471,462,461
94512,473,460,460
94513,472,460,462
94514,472,460,462
94515,473,461,464
94516,474,462,461
94517,471,459,460
94518,471,458,461
94519,471,461,462
94520,469,462,461
94521,474,462,461
94522,469,462,462
94523,465,461,461
94524,466,459,461
94525,466,462,462
94526,465,461,461
94527,465,461,463
94528,463,460,463
94529,464,461,462
94530,465,461,461
94531,465,459,462
94532,466,462,463
94533,466,461,462
94534,468,461,461
94535,467,459,461
94536,464,461,462
94537,468,461,461
94538,468,462,461
94539,467,461,463
94540,466,459,462
94541,466,462,459
94542,463,461,460
94543,467,458,461
94544,466,461,461
94545,464,461,462
94546,466,463,464
94547,467,461,463
94548,467,461,462
94549,467,459,462
94550,467,461,461
94551,466,462,462
94552,466,460,462
94553,466,460,461
94554,465,460,463
94555,466,461,462
94556,467,461,463
94557,467,462,461
94558,470,462,462
94559,472,462,463
94560,471,461,462
94561,475,462,461
94562,477,462,461
94563,477,461,462
94564,477,462,461
94565,477,461,459
94566,478,460,459
94567,478,460,463
94568,476,459,462
94569,478,458,461
94570,479,458,461
94571,480,461,462
94572,478,460,462
94573,478,460,463
94574,476,462,461
94575,476,460,462
94576,475,460,462
94577,476,462,461
94578,472,461,463
94579,470,462,462
94580,463,461,460
94581,465,460,461
94582,463,461,459
94583,464,460,460
94584,463,460,463
94585,468,458,461
94586,468,461,462
94587,472,462,464
94588,474,460,462
94589,476,462,462
94590,479,461,463
94591,480,460,462
94592,481,460,462
94593,481,460,459
94594,480,460,463
94595,477,461,460
94596,477,460,460
94597,475,460,461
94598,472,461,462
94599,470,459,462
94600,471,461,460
94601,470,458,461
94602,472,461,463
94603,474,460,462
94604,477,461,462
94605,480,463,461
94606,479,461,462
94607,484,462,462
94608,486,460,461
94609,484,461,461
94610,486,461,462
94611,486,460,461
94612,484,460,461
94613,479,459,462
94614,480,462,461
94615,478,462,463
94616,476,456,460
94617,476,461,463
94618,474,461,462
94619,474,457,462
94620,475,461,463
94621,475,461,461
94622,477,457,461
94623,476,461,462
94624,480,462,462
94625,485,461,461
94626,491,462,461
94627,498,460,462
94628,502,462,463
94629,508,461,463
94630,514,461,459
94631,517,463,461
94632,519,460,461
94633,516,461,461
94634,514,461,462
94635,509,461,461
94636,503,461,461
94637,493,462,460
94638,488,460,461
94639,481,462,461
94640,473,461,461
94641,466,462,462
94642,459,461,463
94643,459,461,462
94644,459,460,462
94645,461,461,462
94646,463,461,461
94647,464,462,463
94648,469,459,462
94649,475,462,461
94650,481,461,462
94651,487,459,462
94652,490,460,461
94653,487,461,461
94654,488,460,464
94655,490,460,463
94656,486,462,461
94657,483,461,459
94658,481,461,464
94659,475,461,461
94660,474,461,461
94661,469,461,462
94662,465,461,461
94663,465,463,462
94664,462,461,462
94665,461,460,462
94666,468,463,462
94667,471,458,461
94668,475,460,462
94669,479,459,462
94670,482,460,462
94671,483,461,461
94672,486,462,462
94673,486,461,463
94674,483,461,463
94675,483,460,461
94676,482,461,462
94677,476,462,460
94678,473,461,462
94679,474,459,461
94680,472,462,458
94681,468,461,462
94682,465,461,460
94683,463,460,462
94684,464,462,461
94685,461,460,462
94686,461,458,462
94687,460,460,463
94688,459,461,463
94689,461,461,461
94690,461,463,460
94691,459,462,460
94692,464,461,463
94693,467,462,462
94694,469,459,462
94695,470,458,462
94696,472,462,462
94697,476,460,463
94698,478,461,462
94699,484,463,462
94700,488,460,463
94701,489,461,463
94702,489,461,461
94703,491,462,461
94704,491,462,462
94705,491,460,462
94706,493,462,462
94707,493,462,461
94708,496,460,461
94709,498,462,461
94710,498,461,462
94711,496,462,462
94712,498,461,462
94713,500,461,462
94714,501,461,461
94715,502,462,461
94716,504,458,461
94717,504,461,462
94718,505,462,462
94719,504,459,462
94720,500,462,462
94721,502,462,464
94722,500,462,463
94723,499,461,462
94724,497,461,463
94725,496,460,461
94726,496,459,462
94727,497,461,463
94728,502,460,462
94729,500,462,460
94730,506,463,462
94731,507,462,460
94732,505,461,461
94733,501,461,462
94734,499,461,460
94735,498,458,461
94736,493,460,462
94737,487,461,463
94738,483,462,462
94739,482,461,461
94740,481,461,462
94741,479,460,463
94742,479,460,462
94743,478,461,462
94744,478,462,460
94745,477,461,461
94746,480,461,461
94747,481,461,462
94748,479,460,466
94749,477,461,463
94750,476,461,461
94751,475,462,462
94752,471,462,462
94753,470,461,462
94754,467,460,463
94755,464,458,462
94756,462,459,462
94757,458,462,462
94758,457,461,463
94759,452,461,459
94760,452,462,462
94761,449,461,461
94762,447,461,462
94763,444,459,462
94764,442,460,463
94765,442,460,461
94766,443,461,462
94767,445,461,462
94768,449,461,462
94769,455,462,461
94770,461,461,459
94771,467,461,462
94772,474,462,463
94773,475,460,460
94774,481,458,461
94775,475,461,460
94776,477,461,462
94777,473,460,462
94778,466,461,463
94779,460,462,463
94780,457,462,462
94781,456,461,461
94782,455,460,461
94783,457,462,463
94784,458,462,463
94785,462,461,463
94786,460,462,463
94787,460,462,462
94788,458,461,459
94789,463,461,463
94790,463,462,463
94791,465,460,461
94792,467,461,463
94793,467,462,463
94794,472,461,461
94795,467,459,462
94796,462,461,460
94797,462,461,460
94798,456,461,462
94799,454,461,464
94800,451,460,462
94801,445,462,461
94802,445,460,463
94803,442,460,462
94804,441,458,462
94805,441,462,464
94806,443,461,460
94807,445,459,462
94808,446,461,461
94809,448,461,464
94810,451,461,461
94811,452,461,462
94812,453,460,459
94813,455,461,463
94814,453,462,464
94815,457,460,462
94816,456,460,462
94817,460,461,463
94818,462,461,461
94819,467,460,460
94820,473,461,463
94821,480,460,462
94822,487,461,461
94823,490,460,462
94824,494,461,463
94825,498,459,463
94826,502,460,463
94827,504,460,461
94828,507,460,462
94829,506,457,462
94830,503,461,463
94831,495,461,462
94832,496,459,463
94833,492,460,461
94834,487,460,460
94835,486,460,462
94836,481,462,462
94837,474,461,459
94838,466,461,458
94839,466,460,463
94840,463,460,461
94841,461,462,461
94842,458,461,463
94843,456,463,463
94844,456,460,462
94845,456,461,461
94846,455,461,464
94847,454,461,461
94848,454,461,463
94849,457,461,463
94850,459,462,462
94851,457,460,463
94852,462,459,462
94853,455,461,463
94854,456,460,461
94855,456,460,463
94856,457,461,462
94857,459,462,461
94858,467,458,462
94859,471,461,463
94860,475,460,462
94861,477,460,462
94862,484,458,462
94863,491,462,464
94864,494,463,461
94865,497,462,466
94866,500,462,460
94867,498,458,463
94868,495,459,461
94869,494,459,461
94870,486,461,459
94871,479,461,462
94872,473,461,461
94873,466,460,464
94874,462,458,461
94875,455,461,460
94876,453,461,463
94877,451,460,462
94878,449,461,463
94879,449,461,464
94880,446,461,464
94881,445,458,462
94882,445,461,462
94883,443,463,459
94884,446,461,462
94885,448,459,462
94886,448,460,462
94887,452,461,462
94888,466,460,463
94889,474,460,463
94890,482,460,463
94891,488,462,464
94892,496,461,461
94893,500,460,457
94894,506,460,461
94895,515,459,462
94896,518,459,463
94897,518,462,462
94898,515,462,463
94899,508,461,461
94900,499,461,461
94901,485,460,462
94902,472,459,463
94903,457,461,462
94904,449,460,463
94905,439,461,463
94906,439,461,462
94907,441,460,463
94908,451,461,459
94909,461,462,462
94910,470,461,460
94911,476,460,456
94912,479,462,461
94913,477,459,462
94914,473,461,462
94915,465,461,462
94916,456,461,463
94917,450,461,462
94918,445,460,463
94919,444,461,463
94920,452,460,462
94921,459,459,462
94922,468,461,463
94923,481,460,462
94924,493,461,463
94925,499,460,464
94926,506,461,462
94927,506,459,462
94928,500,462,460
94929,490,460,462
94930,478,462,462
94931,461,461,463
94932,451,458,462
94933,441,462,463
94934,442,462,463
94935,445,461,460
94936,452,461,459
94937,459,461,459
94938,469,459,462
94939,476,460,467
94940,480,461,463
94941,481,459,463
94942,477,460,461
94943,469,461,463
94944,462,461,463
94945,457,459,462
94946,449,461,461
94947,450,461,462
94948,449,461,462
94949,452,461,463
94950,459,463,462
94951,462,460,461
94952,467,462,463
94953,470,460,462
94954,473,461,460
94955,479,460,463
94956,482,462,462
94957,482,461,463
94958,478,460,463
94959,471,461,463
94960,460,461,462
94961,450,461,461
94962,441,462,461
94963,435,463,462
94964,431,463,460
94965,431,459,463
94966,433,462,460
94967,438,462,460
94968,443,462,459
94969,449,461,461
94970,452,461,462
94971,460,461,462
94972,465,461,461
94973,471,460,461
94974,473,461,459
94975,476,462,463
94976,475,461,462
94977,475,462,460
94978,469,461,463
94979,462,461,461
94980,454,461,462
94981,448,461,462
94982,444,462,462
94983,441,462,464
94984,439,461,461
94985,437,462,463
94986,439,461,462
94987,440,461,461
94988,441,461,460
94989,446,460,460
94990,449,461,462
94991,454,461,461
94992,455,459,461
94993,456,460,463
94994,456,461,461
94995,453,461,462
94996,453,461,461
94997,451,461,461
94998,452,462,461
94999,453,461,463
95000,453,462,463
95001,451,462,460
95002,451,461,462
95003,454,462,459
95004,457,461,461
95005,460,461,461
95006,466,463,460
95007,468,462,459
95008,467,462,463
95009,465,459,461
95010,461,459,461
95011,459,463,461
95012,452,463,460
95013,448,461,462
95014,441,458,461
95015,437,461,462
95016,433,461,459
95017,433,462,463
95018,435,460,462
95019,439,460,463
95020,441,461,462
95021,444,458,462
95022,447,462,463
95023,452,462,462
95024,453,462,462
95028,470,462,462
95029,465,462,459
95030,461,462,462
95031,456,461,461
95032,448,461,463
95032,437,462,460
95033,435,461,461
95034,433,460,461
95035,433,460,463
95036,436,462,461
95037,437,460,460
95038,443,461,462
95039,444,460,462
95039,441,463,462
95040,440,461,462
95041,435,458,462
95042,434,460,461
95043,434,459,459
95044,433,461,462
95045,435,460,463
95046,437,461,462
95047,440,462,460
95047,446,461,463
95048,448,461,462
95049,452,460,459
95050,456,461,463
95051,459,462,461
95052,460,461,461
95053,462,460,463
95054,463,462,462
95055,459,461,464
95056,460,461,460
95057,462,461,463
95058,464,461,462
95059,464,461,461
95060,463,462,462
95061,458,461,460
95062,456,461,459
95063,454,460,461
95064,455,462,463
95065,462,459,463
95066,467,461,463
95067,473,462,462
95068,469,461,463
95069,472,460,463
95070,466,461,461
95071,461,461,461
95072,457,461,460
95073,456,461,461
95074,451,462,463
95075,450,462,461
95076,448,461,463
95077,446,461,461
95078,451,459,462
95079,450,461,462
95080,450,461,462
95081,454,460,462
95082,455,461,459
95083,457,460,462
95084,459,457,462
95085,461,462,462
95086,462,462,461
95087,463,461,461
95088,464,461,463
95089,462,461,463
95090,460,460,462
95091,458,460,463
95092,458,462,463
95093,455,461,460
95094,456,462,461
95095,457,460,461
95096,459,461,459
95097,461,461,461
95098,463,461,461
95099,463,460,462
95100,460,460,463
95101,458,461,460
95102,462,461,462
95103,463,461,463
95104,463,462,463
95105,462,461,462
95106,463,461,460
95107,465,460,462
95108,469,461,460
95109,468,462,462
95110,469,461,462
95111,471,461,463
95112,468,460,462
95113,475,460,464
95114,475,461,460
95115,470,460,462
95116,472,461,462
95117,471,460,462
95118,467,461,463
95119,468,460,462
95120,466,461,462
95121,467,458,464
95122,468,461,463
95123,463,461,463
95124,461,461,461
95125,458,459,461
95126,453,462,464
95127,450,460,462
95128,449,458,462
95129,445,461,461
95130,451,459,462
95131,454,461,464
95132,454,462,463
95133,455,462,462
95134,453,460,462
95135,449,461,460
95136,444,462,463
95137,447,461,463
95138,447,459,462
95139,448,460,463
95140,449,462,459
95141,452,462,461
95142,449,462,462
95143,454,462,461
95144,456,459,461
95145,454,461,463
95146,455,461,463
95147,453,460,461
95148,454,461,460
95149,456,462,461
95150,459,461,463
95151,460,462,463
95152,461,460,463
95153,464,459,462
95154,467,460,463
95155,467,461,463
95156,466,461,463
95157,466,462,462
95158,469,460,463
95159,470,458,462
95160,472,458,462
95161,473,461,462
95162,474,461,462
95163,472,461,462
95164,472,460,460
95165,472,462,461
95166,474,458,461
95167,475,460,462
95168,471,460,461
95169,464,461,463
95170,458,462,461
95171,451,461,462
95172,443,461,463
95173,437,461,461
95174,432,459,462
95175,429,460,463
95176,428,458,461
95177,428,462,462
95178,431,460,462
95179,434,461,464
95180,437,461,461
95181,444,461,463
95182,445,461,459
95183,453,458,462
95184,455,460,462
95185,457,461,462
95186,463,460,461
95187,467,461,463
95188,469,459,461
95189,470,460,462
95190,468,461,460
95191,467,460,462
95192,464,462,462
95193,462,461,462
95194,459,461,462
95195,455,461,462
95196,456,461,463
95197,455,461,461
95198,454,462,464
95199,453,460,462
95200,453,461,461
95201,450,457,461
95202,449,460,463
95203,446,461,460
95204,448,460,461
95205,444,461,460
95206,443,462,463
95207,437,459,462
95208,436,462,463
95209,429,460,463
95210,426,460,462
95211,424,462,462
95212,422,462,461
95213,422,461,463
95214,421,461,461
95215,428,461,461
95216,430,462,461
95217,435,461,460
95218,438,460,462
95219,447,462,462
95220,452,460,461
95221,456,460,463
95222,458,461,461
95223,463,461,461
95224,464,462,462
95225,460,462,460
95226,452,460,464
95227,439,461,461
95228,428,461,462
95229,418,461,463
95230,412,462,463
95231,411,461,464
95232,411,461,462
95233,414,461,462
95234,420,462,463
95235,424,461,463
95236,428,462,460
95237,432,461,461
95238,435,462,459
95239,435,463,463
95240,432,460,462
95241,429,461,462
95242,427,461,464
95243,427,461,463
95244,429,460,463
95245,435,461,461
95246,442,459,463
95247,446,461,461
95248,454,460,463
95249,458,461,462
95250,460,461,461
95251,461,459,462
95252,460,460,461
95253,463,462,463
95254,464,460,460
95255,460,461,463
95256,458,461,462
95257,455,462,465
95258,454,461,462
95259,453,461,462
95260,451,458,462
95261,450,461,461
95262,448,461,460
95263,445,462,460
95264,446,460,460
95265,446,461,462
95266,450,461,462
95267,453,461,462
95268,456,459,461
95269,455,462,461
95270,455,461,461
95271,446,462,462
95272,440,461,462
95273,435,461,462
95274,431,461,461
95275,423,460,460
95276,417,460,462
95277,415,461,462
95278,408,462,462
95279,404,461,463
95280,405,464,461
95281,408,462,463
95282,413,461,461
95283,418,459,463
95284,422,460,463
95285,422,459,461
95286,423,460,462
95287,420,457,461
95288,416,460,461
95289,415,462,462
95290,416,462,462
95291,419,461,462
95292,424,460,461
95293,429,461,460
95294,435,460,463
95295,440,461,459
95296,442,460,462
95297,443,462,461
95298,445,461,461
95299,448,461,462
95300,451,460,461
95301,449,459,462
95302,442,463,461
95303,440,459,463
95304,437,461,459
95305,438,462,462
95306,440,461,461
95307,447,461,461
95308,456,461,461
95309,458,462,461
95310,460,463,460
95311,460,461,462
95312,464,459,461
95313,465,462,462
95314,465,462,462
95315,462,460,462
95316,459,458,462
95317,453,462,461
95318,447,458,461
95319,447,461,461
95320,444,462,462
95321,450,460,462
95322,460,460,463
95323,472,460,462
95324,481,459,462
95325,485,461,462
95326,484,461,461
95327,477,461,461
95328,469,462,460
95329,459,458,461
95330,450,461,462
95331,440,461,460
95332,437,462,461
95333,438,461,460
95334,437,459,462
95335,439,462,462
95336,446,462,463
95337,450,461,462
95338,458,459,461
95339,465,462,463
95340,472,459,461
95341,478,462,461
95342,485,462,462
95343,491,462,462
95344,499,459,462
95345,505,461,463
95346,507,457,461
95347,505,461,462
95348,500,462,461
95349,496,461,462
95350,493,462,461
95351,484,461,462
95352,482,461,458
95353,477,460,461
95354,471,461,462
95355,461,462,462
95356,449,461,460
95357,443,461,460
95358,439,461,461
95359,439,461,462
95360,443,461,461
95361,451,462,461
95362,459,461,461
95363,471,461,462
95364,478,461,462
95365,486,458,463
95366,492,459,462
95367,496,461,461
95368,500,460,459
95369,505,460,460
95370,510,461,461
95371,513,461,461
95372,512,462,462
95373,512,462,461
95374,507,462,461
95375,500,461,462
95376,487,460,460
95377,479,461,462
95378,470,461,461
95379,468,461,459
95380,472,462,462
95381,473,461,462
95382,478,460,462
95383,483,461,463
95384,491,461,461
95385,498,462,462
95386,503,460,462
95387,508,462,460
95388,507,462,462
95389,509,460,461
95390,508,460,462
95391,504,461,462
95392,499,461,462
95393,491,460,462
95394,488,457,461
95395,486,461,461
95396,478,460,462
95397,477,461,462
95398,472,459,461
95399,472,461,462
95400,474,461,463
95401,476,460,460
95402,481,462,461
95403,487,460,461
95404,496,458,462
95405,504,459,462
95406,512,458,463
95407,519,458,461
95408,515,460,463
95409,520,461,463
95410,520,461,461
95411,519,460,462
95412,514,462,462
95413,514,461,461
95414,512,461,460
95415,509,462,459
95416,507,461,460
95417,506,461,463
95418,501,461,461
95419,497,461,463
95420,495,461,461
95421,494,460,462
95422,494,461,460
95423,499,461,462
95424,501,462,459
95425,505,458,463
95426,511,461,461
95427,514,461,462
95428,515,460,462
95429,517,461,459
95430,520,462,462
95431,520,461,462
95432,519,461,459
95433,514,462,461
95434,508,461,462
95435,503,462,461
95436,501,461,462
95437,495,461,461
95438,493,460,462
95439,490,461,462
95440,489,461,463
95441,486,460,463
95442,484,460,462
95443,479,460,463
95444,474,459,462
95445,470,462,461
95446,467,460,461
95447,468,460,462
95448,470,461,461
95449,471,461,463
95450,476,461,461
95451,484,462,457
95452,491,460,462
95453,500,461,461
95454,504,461,461
95455,507,462,463
95456,511,461,462
95457,514,459,463
95458,512,461,461
95459,514,461,463
95460,513,461,462
95461,510,458,461
95462,510,460,463
95463,507,461,461
95464,505,461,462
95465,505,460,462
95466,500,461,459
95467,496,461,462
95468,494,461,462
95469,493,461,462
95470,493,460,460
95471,492,459,461
95472,495,461,463
95473,497,461,463
95474,496,460,463
95475,496,461,462
95476,496,461,461
95477,494,462,458
95478,494,462,461
95479,497,461,464
95480,497,461,459
95481,500,461,462
95482,498,460,462
95483,503,460,464
95484,505,461,463
95485,506,461,463
95486,507,462,460
95487,508,460,462
95488,508,462,461
95489,508,460,462
95490,505,461,462
95491,507,461,461
95492,505,461,462
95493,501,460,461
95494,503,461,461
95495,501,461,462
95496,501,460,463
95497,498,462,462
95498,495,461,461
95499,497,460,460
95500,497,461,463
95501,497,461,462
95502,495,460,462
95503,490,459,462
95504,491,460,462
95505,492,460,460
95506,492,461,461
95507,494,459,462
95508,495,462,461
95509,494,461,463
95510,500,460,462
95511,499,461,462
95512,496,460,459
95513,489,461,464
95514,487,461,463
95515,480,460,461
95516,474,459,462
95517,468,461,461
95518,467,460,461
95519,465,462,460
95520,463,460,462
95521,462,459,461
95522,463,461,461
95525,473,462,461
95526,474,461,460
95527,479,460,462
95527,484,459,461
95528,488,461,462
95529,492,461,462
95530,495,461,462
95531,496,460,461
95532,497,458,462
95533,496,461,460
95534,495,460,463
95535,491,461,459
95536,490,462,461
95536,490,461,462
95537,488,461,459
95538,487,461,461
95539,487,460,463
95540,486,461,460
95541,487,460,462
95542,487,460,461
95543,485,461,459
95544,488,459,462
95545,488,459,462
95546,490,461,462
95547,493,461,461
95548,491,461,461
95549,495,460,462
95550,496,461,462
95551,497,461,462
95552,495,461,461
95553,494,461,462
95554,493,462,462
95555,491,461,461
95556,489,461,461
95557,486,462,461
95558,486,461,462
95559,484,461,462
95560,481,458,461
95561,480,461,463
95562,481,460,462
95563,477,461,462
95564,482,459,463
95565,481,460,463
95566,479,458,462
95567,480,461,461
95568,480,461,462
95569,480,461,463
95570,478,462,461
95571,478,458,464
95572,478,461,463
95573,478,461,462
95574,475,460,463
95575,479,460,460
95576,478,461,462
95577,476,459,460
95578,475,461,461
95579,473,461,462
95580,471,461,460
95581,469,459,462
95582,470,461,461
95583,465,462,462
95584,469,460,463
95585,470,459,462
95586,472,461,459
95587,474,460,462
95588,473,461,460
95589,477,461,461
95590,476,461,461
95591,478,462,462
95592,478,462,460
95593,480,462,462
95594,477,461,461
95595,474,459,462
95596,468,461,463
95597,461,460,462
95598,457,460,461
95599,453,460,462
95600,450,460,462
95601,449,462,462
95602,450,459,461
95603,451,461,460
95604,455,461,462
95605,459,461,463
95606,461,461,459
95607,465,460,462
95608,462,461,462
95609,467,461,462
95610,467,461,462
95611,465,458,462
95612,462,461,461
95613,458,461,458
95614,456,461,462
95615,453,461,463
95616,451,460,462
95617,450,461,464
95618,452,462,462
95619,451,460,459
95620,451,461,462
95621,454,460,462
95622,454,460,462
95623,456,460,461
95624,456,462,462
95625,459,460,462
95626,461,461,462
95627,463,459,462
95628,465,461,462
95629,466,460,463
95630,469,459,463
95631,468,459,461
95632,467,461,462
95633,468,461,461
95634,463,461,462
95635,460,459,462
95636,457,461,462
95637,456,461,463
95638,454,462,462
95639,457,459,462
95640,456,460,462
95641,457,461,460
95642,460,458,462
95643,462,458,463
95644,464,460,462
95645,468,461,462
95646,472,459,461
95647,471,460,462
95648,473,461,462
95649,475,456,463
95650,475,461,461
95651,474,462,462
95652,475,461,461
95653,473,460,462
95654,470,462,462
95655,467,460,463
95656,467,461,462
95657,466,462,463
95658,467,460,462
95659,465,460,462
95660,464,461,463
95661,462,460,464
95662,467,461,463
95663,467,461,462
95664,469,457,462
95665,471,461,463
95666,471,460,464
95667,477,460,463
95668,479,461,464
95669,480,458,462
95670,480,460,462
95671,480,461,461
95672,476,458,462
95673,474,460,462
95674,471,461,463
95675,470,462,460
95676,468,460,463
95677,467,458,460
95678,465,461,463
95679,464,460,461
95680,463,461,463
95681,466,462,461
95682,463,457,461
95683,465,461,461
95684,467,460,462
95685,469,458,461
95686,472,462,462
95687,473,460,462
95688,477,460,464
95689,475,461,462
95690,479,460,462
95691,477,459,461
95692,475,458,462
95693,474,460,463
95694,472,459,463
95695,470,462,462
95696,468,462,461
95697,468,461,463
95698,464,462,463
95699,468,461,461
95700,468,460,463
95701,468,462,462
95702,467,460,462
95703,463,462,462
95704,462,462,463
95705,464,458,463
95706,467,462,464
95707,471,461,463
95708,474,461,462
95709,476,461,459
95710,480,461,462
95711,482,462,462
95712,484,462,464
95713,482,462,463
95714,484,461,462
95715,479,461,460
95716,475,461,463
95717,472,459,462
95718,469,460,461
95719,466,461,463
95720,468,462,463
95721,469,461,462
95722,470,459,463
95723,472,462,462
95724,472,461,462
95725,476,462,461
95726,478,461,461
95727,481,460,462
95728,481,460,462
95729,481,461,462
95730,480,461,462
95731,479,462,461
95732,478,462,462
95733,480,460,459
95734,478,459,461
95735,477,461,463
95736,473,460,463
95737,474,462,459
95738,471,459,463
95739,472,461,461
95740,470,462,461
95741,468,461,462
95742,471,461,462
95743,471,462,463
95744,473,460,462
95745,478,461,463
95746,479,462,462
95747,481,459,460
95748,484,460,460
95749,484,460,463
95750,484,462,459
95751,484,462,462
95752,481,461,461
95753,476,459,462
95754,468,461,459
95755,458,461,461
95756,453,461,462
95757,448,461,457
95758,444,460,461
95759,443,459,462
95760,441,462,461
95761,444,460,460
95762,446,461,462
95763,450,458,460
95764,453,461,463
95765,456,459,462
95766,458,459,461
95767,458,459,463
95768,460,461,462
95769,465,462,462
95770,468,461,462
95771,469,459,460
95772,473,461,461
95773,470,460,463
95774,469,461,462
95775,464,462,458
95776,464,460,461
95777,462,461,462
95778,459,459,462
95779,455,460,461
95780,454,460,461
95781,454,459,463
95782,450,460,463
95783,449,459,462
95784,447,461,460
95785,448,459,462
95786,446,459,461
95787,450,459,462
95788,448,460,462
95789,451,462,462
95790,453,460,462
95791,454,461,461
95792,457,459,461
95793,457,460,462
95794,460,462,460
95795,457,460,458
95796,459,459,461
95797,456,461,461
95798,453,462,462
95799,454,459,463
95800,453,459,461
95801,455,458,462
95802,455,459,461
95803,456,461,463
95804,457,461,463
95805,458,461,463
95806,460,457,462
95807,461,461,460
95808,459,462,463
95809,462,461,462
95810,462,460,459
95811,462,461,461
95812,456,460,462
95813,457,460,464
95814,456,459,463
95815,450,461,462
95816,446,461,461
95817,446,461,460
95818,443,461,460
95819,437,459,462
95820,438,462,461
95821,434,460,460
95822,434,463,463
95823,435,462,462
95824,435,462,460
95825,438,460,462
95826,440,462,459
95827,441,460,462
95828,440,460,460
95829,441,459,462
95830,440,461,462
95831,438,460,461
95832,437,458,461
95833,436,461,460
95834,433,461,461
95835,429,461,461
95836,425,462,461
95837,425,461,463
95838,423,460,462
95839,420,462,459
95840,418,461,462
95841,416,462,461
95842,417,458,462
95843,417,459,461
95844,418,461,462
95845,419,458,461
95846,422,461,462
95847,422,461,460
95848,424,458,461
95849,428,461,461
95850,429,461,459
95851,428,462,462
95852,429,461,461
95853,427,463,462
95854,429,462,461
95855,426,460,460
95856,427,461,460
95857,426,460,461
95858,424,460,462
95859,424,461,462
95860,427,460,461
95861,426,462,462
95862,421,461,461
95863,429,461,463
95864,430,461,460
95865,432,461,461
95866,433,462,463
95867,435,460,461
95868,434,460,462
95869,431,461,461
95870,429,462,461
95871,428,460,462
95872,427,459,460
95873,424,458,462
95874,425,460,461
95875,420,461,462
95876,424,460,461
95877,422,461,462
95878,423,460,464
95879,420,461,462
95880,424,461,462
95881,426,461,460
95882,430,461,462
95883,433,462,462
95884,436,462,462
95885,439,460,460
95886,443,460,465
95887,446,461,462
95888,448,461,461
95889,452,461,462
95890,454,458,460
95891,456,462,461
95892,457,462,460
95893,457,461,459
95894,457,460,462
95895,454,462,461
95896,454,459,461
95897,450,462,461
95898,448,460,463
95899,446,460,463
95900,444,460,460
95901,446,459,460
95902,444,460,462
95903,448,460,462
95904,449,460,461
95905,447,461,458
95906,450,460,462
95907,452,461,463
95908,455,457,461
95909,454,461,462
95910,459,462,462
95911,462,461,459
95912,466,462,462
95913,466,462,462
95914,463,461,463
95915,461,459,461
95916,457,462,463
95917,455,461,462
95918,452,461,460
95919,451,462,461
95920,447,460,463
95921,449,460,463
95922,450,461,460
95923,450,461,461
95924,456,461,461
95925,460,462,462
95926,463,461,461
95927,463,462,462
95928,464,462,462
95929,469,460,461
95930,470,462,462
95931,472,460,463
95932,473,460,462
95933,472,462,462
95934,470,461,462
95935,472,460,461
95936,469,461,460
95937,465,461,462
95938,467,460,461
95939,467,462,460
95940,467,458,461
95941,470,462,464
95942,471,461,460
95943,471,462,460
95944,477,460,462
95945,480,461,460
95946,483,462,461
95947,487,461,461
95948,488,461,462
95949,491,461,463
95950,492,457,462
95951,493,461,460
95952,495,462,462
95953,492,459,461
95954,494,462,461
95955,488,461,459
95956,487,460,463
95957,486,460,463
95958,483,458,459
95959,481,461,462
95960,477,461,462
95961,475,460,461
95962,476,462,461
95963,473,460,462
95964,480,460,462
95965,480,461,461
95966,484,461,461
95967,489,461,461
95968,491,461,462
95969,492,461,462
95970,493,461,461
95971,495,461,461
95972,495,461,463
95973,494,462,462
95974,492,459,462
95975,490,460,461
95976,492,463,460
95977,483,461,458
95978,486,460,462
95979,482,460,462
95980,480,460,461
95981,483,460,461
95982,483,459,463
95983,483,459,463
95984,484,460,460
95985,485,460,461
95986,484,460,462
95987,481,462,462
95988,481,461,463
95989,480,461,462
95990,480,462,461
95991,480,460,462
95992,478,461,461
95993,478,459,461
95994,477,461,462
95995,475,458,461
95996,473,461,460
95997,470,462,461
95998,467,462,461
95999,464,461,462
96000,463,462,461
96001,461,459,462
96002,459,462,462
96003,460,460,462
96004,462,462,461
96005,464,460,463
96006,470,461,463
96007,472,459,461
96008,476,461,462
96009,477,462,461
96010,480,459,461
96011,482,461,461
96012,480,460,462
96013,483,461,462
96014,481,460,462
96015,482,461,462
96016,479,459,462
96017,480,460,462
96018,474,459,460
96019,475,460,461
96020,474,460,462
96021,472,461,462
96022,474,461,462
96023,473,462,463
96024,474,461,458
96025,476,459,462
96026,477,461,461
96027,477,460,462
96028,478,460,463
96029,479,461,461
96030,479,459,462
96031,478,460,463
96032,475,460,462
96033,475,461,463
96034,472,460,463
96035,470,462,463
96036,468,459,462
96037,465,461,461
96038,462,461,461
96039,461,460,462
96040,460,459,461
96041,459,461,463
96042,460,462,461
96043,461,462,461
96044,463,459,461
96045,464,462,462
96046,466,460,461
96047,468,461,462
96048,469,460,462
96049,469,458,461
96050,469,461,461
96051,467,460,463
96052,467,461,461
96053,464,462,462
96054,461,461,462
96055,459,457,461
96056,452,461,462
96057,450,460,462
96058,449,461,462
96059,446,461,460
96060,441,462,459
96061,439,461,462
96062,440,462,460
96063,435,461,460
96064,432,461,462
96065,436,460,462
96066,438,462,460
96067,435,461,462
96068,439,461,456
96069,442,460,461
96070,440,460,459
96071,440,459,462
96072,438,463,461
96073,439,461,462
96074,438,461,462
96075,437,462,462
96076,433,460,461
96077,430,461,462
96078,427,461,461
96079,426,459,462
96080,423,461,464
96081,423,460,459
96082,422,461,462
96083,424,461,462
96084,425,461,459
96085,429,461,462
96086,430,462,462
96087,431,458,462
96088,433,461,463
96089,433,460,462
96090,437,460,462
96091,435,461,463
96092,436,461,461
96093,435,462,461
96094,434,458,462
96095,434,460,460
96096,434,461,463
96097,433,462,461
96098,434,462,463
96099,436,461,460
96100,434,461,463
96101,435,459,461
96102,436,460,462
96103,437,460,460
96104,438,461,466
96105,437,460,462
96106,438,461,461
96107,437,461,462
96108,442,461,461
96109,439,462,460
96110,442,461,462
96111,441,461,462
96112,440,460,463
96113,440,461,463
96114,438,462,463
96115,436,458,462
96116,435,461,462
96117,432,458,461
96118,434,461,462
96119,431,460,462
96120,432,463,461
96121,430,461,461
96122,431,461,462
96123,431,462,463
96124,432,461,459
96125,434,462,461
96126,435,460,461
96127,436,462,461
96128,437,462,462
96129,438,460,461
96130,437,461,462
96131,436,462,463
96132,438,462,462
96133,435,462,461
96134,435,462,460
96135,432,461,460
96136,431,461,462
96137,431,460,463
96138,430,462,461
96139,431,460,463
96140,431,461,462
96141,431,461,460
96142,429,462,461
96143,431,462,463
96144,430,460,462
96145,430,460,463
96146,430,462,461
96147,430,461,462
96148,433,462,460
96149,434,460,462
96150,434,461,461
96151,432,462,461
96152,428,461,461
96153,428,462,462
96154,426,460,461
96155,423,460,464
96156,422,461,460
96157,423,461,463
96158,421,460,463
96159,421,461,463
96160,420,460,462
96161,419,461,461
96162,421,459,462
96163,422,461,460
96164,421,460,464
96165,423,458,462
96166,422,461,463
96167,427,461,462
96168,428,461,458
96169,431,461,462
96170,429,461,464
96171,428,461,459
96172,426,460,463
96173,425,461,461
96174,425,461,460
96175,424,461,462
96176,426,461,460
96177,428,461,462
96178,426,462,461
96179,430,458,462
96180,431,459,461
96181,428,460,463
96182,428,462,461
96183,427,462,463
96184,426,461,459
96185,426,462,463
96186,428,458,461
96187,428,461,460
96188,428,461,463
96189,429,459,463
96190,428,461,461
96191,423,462,463
96192,426,461,462
96193,426,462,463
96194,423,462,463
96195,424,461,461
96196,424,460,464
96197,420,461,462
96198,419,460,460
96199,420,461,461
96200,417,460,462
96201,414,461,463
96202,418,461,462
96203,418,462,463
96204,420,461,460
96205,421,461,459
96206,422,460,463
96207,423,462,461
96208,422,459,461
96209,423,461,461
96210,419,463,462
96211,422,459,463
96212,422,461,463
96213,422,462,462
96214,422,459,463
96215,421,461,462
96216,423,462,461
96217,420,459,462
96218,417,461,464
96219,418,458,463
96220,415,462,462
96221,414,461,463
96222,409,461,463
96223,411,462,463
96224,411,460,461
96225,412,459,464
96226,415,462,461
96227,421,463,464
96228,427,461,464
96229,426,461,463
96230,428,460,462
96231,421,462,462
96232,416,462,462
96233,409,460,463
96234,401,461,462
96235,396,460,460
96236,392,461,462
96237,394,461,462
96238,391,461,461
96239,394,461,463
96240,396,460,464
96241,397,461,462
96242,400,462,464
96243,403,461,463
96244,404,462,463
96245,405,460,461
96246,407,458,462
96247,408,460,462
96248,408,462,462
96249,408,461,463
96250,405,460,462
96251,405,461,463
96252,404,461,459
96253,405,459,461
96254,403,462,463
96255,402,461,459
96256,402,462,463
96257,404,462,461
96258,402,460,461
96259,399,461,462
96260,400,462,461
96261,404,462,463
96262,405,461,462
96263,405,461,464
96264,405,461,462
96265,410,460,461
96266,410,461,463
96267,411,461,462
96268,413,461,463
96269,411,460,462
96270,412,459,463
96271,412,462,462
96272,409,462,462
96273,408,461,462
96274,407,462,462
96275,407,462,460
96276,401,460,462
96277,396,461,463
96278,396,462,463
96279,396,462,460
96280,394,462,464
96281,391,462,464
96282,395,461,460
96283,395,461,463
96284,394,459,463
96285,395,462,463
96286,394,462,462
96287,396,461,462
96288,396,459,462
96289,395,461,462
96290,397,460,461
96291,400,460,461
96292,397,463,463
96293,400,460,463
96294,400,462,462
96295,398,461,462
96296,398,460,461
96297,399,464,462
96298,398,463,459
96299,399,461,461
96300,399,461,464
96301,401,462,463
96302,403,460,462
96303,405,461,462
96304,405,462,463
96305,407,461,460
96306,407,462,462
96307,407,461,462
96308,405,460,462
96309,404,462,460
96310,398,461,462
96311,400,462,461
96312,394,460,462
96313,392,460,463
96314,392,461,462
96315,387,460,460
96316,385,461,459
96317,385,458,463
96318,382,460,460
96319,384,461,462
96320,383,462,462
96321,384,460,462
96322,387,462,460
96323,385,461,463
96324,391,461,460
96325,395,460,461
96326,396,462,462
96327,398,462,461
96328,398,461,463
96329,395,462,462
96330,394,460,463
96331,391,462,462
96332,388,459,460
96333,383,459,462
96334,382,460,461
96335,378,463,463
96336,379,460,463
96337,378,461,462
96338,379,461,463
96339,379,462,461
96340,377,461,463
96341,380,461,462
96342,378,461,462
96343,382,459,462
96344,386,460,462
96345,390,461,462
96346,396,461,462
96347,397,461,460
96348,399,461,462
96349,404,462,463
96350,403,462,462
96351,408,459,461
96352,406,460,463
96353,405,461,462
96354,402,461,460
96355,400,461,461
96356,397,462,463
96357,391,461,461
96358,392,460,462
96359,387,461,461
96360,388,459,462
96361,387,462,462
96362,386,460,459
96363,388,462,461
96364,386,462,463
96365,388,460,463
96366,390,460,462
96367,392,457,463
96368,395,462,463
96369,400,462,462
96370,403,460,461
96371,407,462,462
96372,408,461,461
96373,412,462,462
96374,413,460,461
96375,413,461,461
96376,410,461,462
96377,409,460,464
96378,402,459,462
96379,396,461,463
96380,390,462,463
96381,388,460,461
96382,385,462,462
96383,386,459,463
96384,385,458,461
96385,385,460,463
96386,387,460,461
96387,388,462,461
96388,390,461,462
96389,391,462,462
96390,393,462,462
96391,391,461,459
96392,394,461,461
96393,393,462,461
96394,393,461,463
96395,391,461,462
96396,394,461,462
96397,392,460,461
96398,391,457,462
96399,394,462,462
96400,392,461,462
96401,394,461,463
96402,394,461,462
96403,394,462,461
96404,396,458,462
96405,398,461,462
96406,399,462,461
96407,401,460,461
96408,403,459,462
96409,404,461,462
96410,408,463,463
96411,409,460,461
96412,408,459,463
96413,408,460,462
96414,407,460,462
96415,404,461,462
96416,409,461,461
96417,407,461,464
96418,408,461,463
96419,410,459,462
96420,409,461,461
96421,412,461,460
96422,412,461,463
96423,419,462,460
96424,416,462,463
96425,418,462,462
96426,420,462,462
96427,421,461,463
96428,416,461,463
96429,414,460,462
96430,411,462,460
96431,407,460,462
96432,407,461,462
96433,405,462,461
96434,404,461,459
96435,403,460,462
96436,403,460,460
96437,403,462,462
96438,404,462,460
96439,402,463,463
96440,402,462,462
96441,402,461,461
96442,402,462,459
96443,403,459,463
96444,405,460,462
96445,410,460,462
96446,412,461,462
96447,415,461,462
96448,420,461,463
96449,420,462,461
96450,424,460,463
96451,424,461,461
96452,424,460,461
96453,425,461,461
96454,427,461,462
96455,425,461,460
96456,423,461,459
96457,424,461,462
96458,423,461,460
96459,420,460,459
96460,420,462,462
96461,420,461,462
96462,418,460,463
96463,418,462,461
96464,417,462,462
96465,415,461,463
96466,415,458,461
96467,413,461,463
96468,412,461,461
96469,412,460,463
96470,412,463,462
96471,415,463,463
96472,409,461,464
96473,411,460,462
96474,412,461,461
96475,411,460,463
96476,410,461,461
96477,409,462,463
96478,412,460,464
96479,412,462,461
96480,413,459,462
96481,415,461,462
96482,416,460,463
96483,416,461,462
96484,419,462,463
96485,419,461,462
96486,420,461,461
96487,421,460,463
96488,420,462,462
96489,416,459,461
96490,418,461,462
96491,416,458,462
96492,416,460,460
96493,414,462,463
96494,414,460,463
96495,414,462,462
96496,414,461,462
96497,417,462,462
96498,417,461,462
96499,417,460,462
96500,416,460,463
96501,416,461,460
96502,416,461,461
96503,418,458,461
96504,418,461,462
96505,421,461,462
96506,422,460,463
96507,426,460,462
96508,432,462,461
96509,436,460,463
96510,439,460,459
96511,440,461,462
96512,441,461,461
96513,439,460,462
96514,433,460,463
96515,430,462,460
96516,431,461,461
96517,434,461,461
96518,440,460,460
96519,446,461,462
96520,449,459,462
96521,450,462,461
96522,451,461,463
96523,453,461,461
96524,452,462,462
96525,449,461,459
96526,445,460,461
96527,440,461,462
96528,435,460,463
96529,434,461,462
96530,431,461,461
96531,430,461,463
96532,430,462,461
96533,428,461,461
96534,427,459,461
96535,427,461,461
96536,424,460,463
96537,423,461,463
96538,420,462,461
96539,419,459,462
96540,415,459,461
96541,411,460,463
96542,410,461,460
96543,412,460,461
96544,414,458,462
96545,417,461,462
96546,418,461,464
96547,422,462,462
96548,421,459,463
96549,419,461,462
96550,423,460,461
96551,423,461,462
96552,424,459,462
96553,421,460,462
96554,420,460,462
96555,416,461,461
96556,412,462,460
96557,413,461,463
96558,408,461,462
96559,409,461,461
96560,409,461,462
96561,408,461,460
96562,412,462,461
96563,411,461,462
96564,414,462,462
96565,414,458,462
96566,417,461,463
96567,423,462,459
96568,429,457,462
96569,437,461,461
96570,441,462,461
96571,445,458,461
96572,446,461,458
96573,447,461,461
96574,447,460,462
96575,443,460,462
96576,438,461,459
96577,432,461,461
96578,425,461,460
96579,424,460,462
96580,421,460,462
96581,421,461,462
96582,421,460,459
96583,421,460,462
96584,430,461,463
96585,438,461,461
96586,447,460,462
96587,452,461,463
96588,456,460,462
96589,460,461,462
96590,461,461,463
96591,464,462,461
96592,460,460,463
96593,461,460,462
96594,457,461,462
96595,460,462,462
96596,462,460,462
96597,464,458,461
96598,463,460,463
96599,461,462,460
96600,459,462,461
96601,454,461,463
96602,454,460,462
96603,448,461,462
96604,445,459,462
96605,442,461,461
96606,438,461,460
96607,434,460,460
96608,433,462,462
96609,434,459,462
96610,438,460,462
96611,437,460,463
96612,439,462,462
96613,443,459,461
96614,447,461,461
96615,450,460,463
96616,451,460,462
96617,449,462,463
96618,441,461,462
96619,439,462,464
96620,433,461,464
96621,433,460,461
96622,433,457,460
96623,435,461,463
96624,435,462,462
96625,438,461,462
96626,441,459,463
96627,442,459,464
96628,444,461,464
96629,447,460,462
96630,447,461,463
96631,449,462,462
96632,447,461,462
96633,446,461,462
96634,445,462,462
96635,440,460,463
96636,436,461,462
96637,435,461,460
96638,433,460,460
96639,432,461,463
96640,429,460,463
96641,431,460,462
96642,433,457,462
96643,435,460,462
96644,436,458,461
96645,439,462,460
96646,445,458,462
96647,447,462,462
96648,455,459,463
96649,462,462,458
96650,467,464,462
96651,468,461,463
96652,467,461,459
96653,466,460,463
96654,461,458,462
96655,454,461,463
96656,446,461,462
96657,439,461,460
96658,430,462,461
96659,421,461,463
96660,417,461,461
96661,414,460,462
96662,413,461,461
96663,409,461,463
96664,411,461,462
96665,414,461,462
96666,417,460,461
96667,420,461,463
96668,420,461,462
96669,427,460,463
96670,433,460,462
96671,439,460,462
96672,443,462,464
96673,447,458,463
96674,451,463,461
96675,459,461,462
96676,462,460,459
96677,463,458,462
96678,467,459,463
96679,470,461,463
96680,474,461,461
96681,476,461,462
96682,476,461,463
96683,478,461,462
96684,473,461,463
96685,475,458,461
96686,471,462,460
96687,465,461,463
96688,462,461,463
96689,456,461,461
96690,453,461,462
96691,447,461,462
96692,444,461,463
96693,444,462,462
96694,446,461,459
96695,446,462,459
96696,445,461,459
96697,445,461,462
96698,448,462,462
96699,449,462,461
96700,448,462,459
96701,450,459,461
96702,447,461,463
96703,448,462,462
96704,444,461,461
96705,447,460,463
96706,448,461,460
96707,449,458,461
96708,449,461,461
96709,452,462,461
96710,455,462,463
96711,463,461,462
96712,468,461,462
96713,469,460,462
96714,469,459,462
96715,470,462,462
96716,475,459,462
96717,479,458,462
96718,492,460,461
96719,495,458,461
96720,497,460,462
96721,503,461,462
96722,506,459,463
96723,506,458,461
96724,504,457,461
96725,496,461,461
96726,486,461,461
96727,475,458,462
96728,469,461,464
96729,467,461,461
96730,467,462,462
96731,470,462,460
96732,475,461,460
96733,479,461,463
96734,484,460,461
96735,483,462,463
96736,494,460,463
96737,497,461,459
96738,498,459,461
96739,500,460,462
96740,498,461,463
96741,497,462,462
96742,492,458,460
96743,484,459,461
96744,476,462,460
96745,468,458,461
96746,462,462,461
96747,460,461,461
96748,464,461,463
96749,469,460,462
96750,471,461,463
96751,473,461,461
96752,473,462,463
96753,475,460,462
96754,474,459,463
96755,473,459,462
96756,471,461,460
96757,468,462,459
96758,469,461,462
96759,472,462,461
96760,479,461,463
96761,486,461,461
96762,490,461,460
96763,493,462,462
96764,496,459,463
96765,501,460,462
96766,504,461,461
96767,504,462,462
96768,505,459,462
96769,503,460,464
96770,501,460,462
96771,504,461,461
96772,507,462,463
96773,512,461,460
96774,514,461,464
96775,514,458,462
96776,513,461,460
96777,513,461,459
96778,514,463,461
96779,509,461,463
96780,504,461,464
96781,498,460,463
96782,491,462,462
96783,481,459,461
96784,473,461,462
96785,469,461,459
96786,468,459,462
96787,469,462,461
96788,475,461,462
96789,479,461,459
96790,484,462,461
96791,485,461,462
96792,488,462,461
96793,489,461,460
96794,489,461,463
96795,489,461,461
96796,488,461,462
96797,485,460,461
96798,483,461,463
96799,483,461,462
96800,483,461,463
96801,486,460,461
96802,490,462,461
96803,496,460,462
96804,503,460,461
96805,509,462,462
96806,513,460,460
96807,514,461,459
96808,514,461,462
96809,511,462,459
96810,509,461,462
96811,511,462,462
96812,513,461,463
96813,512,463,462
96814,513,460,459
96815,512,459,462
96816,509,460,462
96817,507,459,463
96818,502,460,460
96819,497,461,462
96820,493,458,461
96821,487,457,461
96822,482,460,462
96823,478,460,462
96824,478,461,460
96825,481,460,462
96826,483,462,461
96827,485,458,462
96828,488,459,462
96829,490,460,462
96830,491,458,461
96831,491,461,462
96832,491,459,462
96833,490,459,462
96834,488,460,459
96835,489,460,460
96836,494,458,463
96837,494,460,463
96838,497,466,462
96839,501,459,461
96840,503,461,460
96841,502,459,462
96842,500,460,461
96843,504,462,460
96844,499,461,462
96845,503,461,461
96846,508,460,462
96847,509,459,463
96848,508,462,461
96849,508,461,462
96850,509,460,463
96851,509,459,462
96852,507,457,461
96853,499,461,462
96854,496,461,462
96855,491,459,462
96856,489,461,462
96857,484,459,462
96858,482,461,464
96859,478,462,463
96860,477,459,463
96861,477,461,461
96862,479,461,462
96863,481,461,461
96864,486,462,462
96865,489,459,462
96866,494,462,462
96867,499,460,462
96868,504,461,461
96869,507,459,462
96870,508,460,462
96871,504,461,462
96872,499,461,462
96873,500,460,462
96874,493,462,462
96875,492,461,463
96876,490,462,461
96877,491,462,463
96878,493,460,460
96879,496,462,463
96880,500,462,461
96881,506,458,461
96882,512,461,463
96883,516,461,461
96884,520,462,462
96885,520,462,462
96886,518,461,464
96887,513,460,462
96888,509,461,462
96889,505,458,462
96890,497,459,463
96891,497,462,461
96892,496,461,462
96893,495,462,462
96894,493,461,462
96895,494,459,462
96896,491,462,462
96897,494,461,462
96898,491,460,459
96899,495,459,462
96900,496,460,462
96901,495,461,461
96902,499,460,458
96903,508,461,459
96904,513,458,463
96905,514,461,464
96906,519,461,461
96907,517,460,462
96908,518,461,462
96909,518,462,463
96910,519,459,462
96911,522,460,463
96912,524,461,459
96913,526,461,459
96914,524,458,461
96915,523,460,462
96916,519,461,462
96917,514,461,461
96918,507,459,461
96919,499,459,461
96920,493,460,461
96921,488,461,459
96922,485,461,462
96923,480,460,461
96924,481,462,463
96925,481,461,460
96926,485,461,463
96927,485,462,461
96928,489,461,463
96929,490,462,463
96930,495,462,461
96931,501,461,461
96932,502,460,462
96933,504,461,461
96934,501,459,463
96935,497,459,463
96936,489,461,463
96937,486,461,463
96938,488,463,462
96939,487,461,460
96940,493,460,463
96941,495,458,463
96942,497,462,463
96943,499,458,461
96944,500,460,461
96945,501,461,462
96946,500,461,462
96947,504,461,460
96948,502,460,461
96949,495,461,462
96950,493,459,462
96951,486,462,460
96952,487,462,461
96953,488,462,463
96954,488,460,462
96955,488,462,464
96956,485,460,463
96957,480,457,461
96958,473,461,463
96959,468,460,462
96960,464,461,459
96961,464,462,462
96962,464,461,462
96963,467,461,461
96964,470,461,464
96965,474,459,462
96966,478,460,463
96967,479,462,461
96968,480,461,463
96969,480,458,461
96970,478,461,460
96971,479,462,462
96972,479,460,461
96973,476,460,462
96974,472,460,463
96975,474,462,461
96976,475,461,461
96977,479,460,463
96978,484,460,461
96979,487,461,460
96980,486,461,463
96981,484,462,463
96982,482,462,462
96983,485,461,459
96984,489,459,461
96985,494,462,462
96986,491,461,460
96987,491,462,461
96988,486,461,462
96989,484,458,463
96990,481,459,462
96991,482,459,462
96992,483,459,463
96993,480,461,462
96994,478,458,463
96995,476,459,461
96996,473,461,462
96997,468,460,462
96998,468,463,459
96999,472,462,461
97000,472,460,463
97001,474,457,461
97002,474,458,462
97003,471,461,463
97004,467,460,462
97005,463,462,463
97006,462,461,462
97007,463,459,461
97008,466,462,462
97009,466,461,463
97010,471,460,461
97011,474,461,463
97012,476,460,462
97013,475,461,461
97014,475,461,462
97015,474,461,461
97016,471,459,462
97017,465,459,462
97018,457,461,462
97019,457,462,462
97020,451,461,462
97021,450,460,462
97022,446,461,461
97023,446,460,461
97024,444,461,463
97025,444,462,460
97026,442,460,464
97027,442,459,461
97028,440,460,461
97029,442,462,462
97030,443,462,462
97031,444,461,462
97032,441,459,461
97033,442,461,462
97034,443,461,462
97035,444,462,459
97036,449,460,462
97037,451,461,462
97038,449,461,462
97039,447,460,461
97040,444,460,464
97041,445,460,461
97042,449,461,462
97043,451,460,463
97044,454,461,463
97045,453,461,462
97046,452,461,462
97047,451,460,462
97048,449,460,463
97049,447,460,462
97050,446,460,461
97051,450,461,460
97052,452,462,462
97053,454,459,461
97054,458,461,462
97055,458,461,461
97056,465,460,462
97057,469,457,460
97058,473,461,461
97059,479,461,462
97060,485,460,462
97061,491,461,463
97062,494,461,462
97063,494,461,462
97064,494,462,461
97065,492,462,463
97066,484,460,462
97067,474,461,463
97068,469,461,462
97069,460,462,462
97070,455,458,461
97071,451,460,461
97072,449,459,462
97073,452,459,462
97074,453,461,462
97075,455,462,462
97076,460,462,462
97077,460,460,462
97078,464,461,462
97079,468,461,459
97080,474,461,461
97081,482,461,460
97082,488,461,460
97083,496,458,462
97084,503,461,461
97085,505,462,461
97086,505,460,461
97087,500,462,462
97088,497,458,461
97089,493,460,462
97090,485,461,460
97091,479,461,459
97092,476,459,462
97093,471,461,462
97094,467,458,461
97095,464,460,462
97096,460,458,461
97097,455,460,462
97098,456,461,461
97099,459,462,459
97100,463,462,462
97101,470,462,462
97102,476,460,462
97103,477,461,462
97104,472,460,461
97105,471,459,462
97106,466,459,461
97107,460,461,461
97108,457,459,461
97109,457,460,461
97110,461,462,462
97111,460,461,464
97112,468,461,462
97113,471,457,461
97114,474,460,462
97115,477,456,461
97116,481,459,462
97117,480,462,463
97118,479,457,462
97119,476,458,461
97120,470,459,462
97121,465,461,462
97122,460,460,460
97123,460,462,462
97124,462,460,461
97125,467,462,460
97126,467,460,463
97127,475,459,462
97128,481,462,462
97129,489,460,461
97130,489,460,462
97131,492,462,463
97132,496,461,460
97133,499,462,462
97134,498,460,462
97135,498,459,461
97136,497,458,462
97137,489,460,458
97138,480,461,463
97139,472,462,462
97140,474,461,460
97141,471,460,461
97142,471,462,462
97143,472,461,463
97144,473,461,461
97145,479,461,462
97146,487,459,461
97147,493,462,462
97148,502,460,462
97149,504,459,463
97150,507,460,461
97151,506,461,462
97152,506,461,462
97153,507,461,460
97154,506,463,462
97155,508,460,462
97156,503,462,462
97157,500,461,460
97158,502,456,461
97159,497,461,463
97160,495,461,463
97161,492,460,462
97162,490,460,461
97163,481,460,462
97164,472,461,463
97165,459,460,462
97166,451,460,462
97167,448,461,462
97168,442,462,462
97169,436,460,463
97170,427,461,463
97171,416,462,464
97172,407,461,462
97173,405,460,462
97174,399,459,462
97175,404,461,462
97176,411,462,462
97177,419,457,463
97178,428,461,463
97179,437,461,462
97180,447,462,462
97181,455,462,462
97182,461,462,462
97183,466,459,462
97184,464,462,462
97185,455,462,461
97186,445,461,463
97187,433,459,464
97188,424,461,461
97189,427,462,461
97190,430,462,461
97191,435,461,461
97192,442,459,462
97193,446,461,461
97194,449,460,462
97195,453,462,463
97196,460,461,462
97197,460,463,461
97198,458,461,461
97199,450,461,462
97200,452,462,461
97201,448,462,462
97202,451,460,463
97203,451,460,460
97204,456,461,463
97205,463,461,463
97206,470,460,459
97207,472,461,460
97208,469,461,460
97209,461,460,463
97210,453,459,463
97211,445,459,462
97212,438,462,462
97213,436,461,462
97214,438,460,461
97215,438,460,457
97216,442,460,462
97217,452,461,462
97218,465,459,462
97219,472,461,463
97220,480,461,462
97221,490,460,462
97222,492,462,460
97223,492,461,461
97224,489,462,462
97225,487,462,462
97226,489,461,462
97227,490,460,463
97228,494,461,463
97229,495,461,461
97230,497,460,461
97231,499,460,461
97232,500,462,462
97233,499,458,462
97234,495,459,464
97235,491,461,463
97236,483,462,461
97237,474,461,463
97238,471,460,461
97239,467,460,461
97240,468,458,461
97241,469,459,460
97242,466,461,461
97243,463,460,462
97244,459,461,463
97245,458,461,462
97246,461,461,462
97247,464,462,461
97248,467,462,462
97249,467,460,462
97250,465,461,461
97251,464,461,462
97252,463,461,461
97253,462,459,462
97254,459,459,461
97255,455,459,461
97256,446,462,462
97257,438,461,460
97258,436,461,462
97259,433,462,461
97260,433,461,460
97261,434,462,460
97262,441,460,462
97263,448,462,462
97264,449,460,463
97265,451,461,462
97266,444,461,462
97267,435,461,462
97268,431,462,463
97269,428,461,463
97270,430,460,462
97271,435,461,460
97272,446,462,461
97273,454,460,461
97274,458,460,462
97275,463,460,462
97276,464,461,463
97277,470,459,462
97278,472,459,462
97279,471,462,462
97280,473,461,462
97281,472,462,462
97282,476,462,460
97283,482,461,461
97284,484,461,461
97285,484,460,461
97286,485,462,459
97287,482,461,461
97288,482,460,462
97289,483,460,461
97290,484,461,463
97291,482,460,463
97292,481,460,463
97293,476,461,463
97294,475,460,463
97295,472,461,464
97296,473,461,460
97297,474,459,462
97298,473,462,459
97299,474,461,463
97300,478,461,461
97301,483,460,461
97302,485,462,462
97303,491,459,463
97304,495,461,459
97305,495,461,462
97306,495,461,461
97307,494,460,460
97308,493,459,462
97309,487,461,462
97310,476,460,462
97311,473,460,461
97312,467,460,462
97313,460,460,462
97314,459,461,461
97315,456,461,462
97316,452,461,462
97317,446,461,462
97318,445,461,463
97319,446,461,463
97320,447,461,462
97321,448,461,464
97322,454,460,462
97323,454,460,462
97325,464,461,461
97326,469,461,463
97327,477,461,462
97328,484,460,462
97328,482,460,463
97329,485,459,462
97330,477,461,461
97331,469,459,462
97332,463,462,463
97333,455,461,462
97334,452,461,463
97335,448,460,463
97336,450,460,462
97337,451,460,462
97338,457,460,463
97339,461,461,463
97340,465,463,461
97341,466,462,460
97342,471,461,464
97343,472,461,463
97344,472,461,462
97345,468,460,463
97346,469,460,463
97347,471,460,462
97348,475,459,461
97349,480,461,461
97350,484,460,462
97351,489,462,462
97352,491,460,463
97353,493,461,460
97354,492,462,463
97355,496,460,464
97356,497,461,462
97357,497,461,462
97358,497,459,459
97359,498,460,461
97360,498,461,461
97361,498,460,462
97362,502,461,462
97363,501,460,463
97364,502,460,462
97365,504,461,462
97366,504,462,463
97367,505,460,463
97368,506,460,462
97369,505,459,461
97370,505,461,461
97371,503,459,462
97372,504,461,462
97373,501,461,463
97374,502,460,462
97375,501,461,461
97376,499,460,463
97377,496,459,463
97378,494,462,459
97379,493,460,462
97380,492,459,462
97381,488,459,462
97382,490,459,462
97383,488,460,463
97384,488,460,461
97385,488,462,462
97386,489,461,463
97387,494,461,461
97388,495,459,461
97389,497,460,463
97390,497,461,462
97391,499,461,462
97392,499,462,461
97393,499,461,462
97394,498,460,462
97395,496,460,463
97396,494,461,462
97397,491,462,462
97398,488,460,461
97399,486,462,459
97400,488,462,461
97401,488,461,460
97402,489,461,462
97403,488,460,462
97404,490,459,462
97405,492,461,461
97406,494,460,462
97407,496,458,460
97408,497,459,462
97409,496,461,463
97410,499,461,463
97411,499,459,463
97412,501,460,462
97413,499,459,462
97414,498,459,461
97415,497,459,462
97416,496,461,462
97417,493,461,462
97418,491,461,461
97419,491,462,462
97420,491,462,462
97421,491,457,462
97422,493,460,460
97423,493,461,462
97424,495,462,463
97425,496,460,462
97426,497,462,461
97427,497,460,463
97428,497,461,462
97429,498,460,462
97430,500,460,460
97431,500,463,460
97432,499,461,462
97433,500,461,462
97434,498,461,462
97435,496,460,462
97436,493,462,462
97437,492,460,460
97438,491,458,461
97439,487,461,460
97440,491,460,463
97441,488,461,461
97442,490,460,461
97443,489,461,463
97444,490,459,462
97445,492,462,463
97446,490,463,462
97447,489,458,463
97448,485,460,463
97449,482,461,462
97450,480,459,462
97451,477,460,463
97452,472,460,461
97453,477,461,461
97454,478,461,461
97455,480,462,462
97456,481,461,459
97457,481,462,462
97458,481,461,463
97459,483,462,460
97460,484,461,462
97461,484,462,460
97462,484,462,463
97463,486,457,461
97464,488,460,461
97465,489,461,461
97466,493,459,461
97467,496,461,461
97468,493,461,461
97469,495,461,463
97470,494,461,460
97471,495,460,460
97472,495,461,462
97473,496,460,462
97474,491,461,460
97475,488,462,460
97476,489,462,462
97477,488,462,462
97478,485,461,460
97479,482,461,460
97480,481,461,460
97481,479,461,461
97482,478,458,462
97483,476,460,461
97484,480,461,463
97485,479,461,463
97486,484,461,462
97487,479,460,462
97488,484,462,461
97489,484,461,463
97490,484,461,461
97491,482,460,462
97492,480,461,462
97493,477,462,462
97494,476,458,461
97495,474,460,463
97496,473,460,461
97497,470,459,462
97498,469,460,461
97499,465,461,460
97500,463,459,461
97501,462,461,459
97502,462,461,461
97503,461,461,462
97504,464,462,460
97505,463,461,462
97506,467,460,461
97507,468,461,463
97508,467,461,463
97509,469,460,461
97510,470,460,461
97511,470,461,462
97512,470,457,462
97513,471,459,461
97514,470,462,464
97515,468,461,463
97516,467,461,461
97517,465,457,462
97518,462,460,462
97519,462,460,459
97520,461,461,461
97521,459,461,461
97522,457,461,460
97523,458,459,461
97524,459,463,461
97525,459,461,461
97526,459,461,460
97527,460,461,462
97528,458,461,461
97529,457,460,462
97530,456,461,462
97531,454,461,460
97532,453,463,459
97533,456,462,462
97534,454,461,460
97535,455,462,462
97536,456,461,462
97537,458,461,462
97538,461,458,462
97539,465,463,462
97540,463,460,462
97541,462,461,461
97542,464,461,461
97543,465,459,463
97544,466,463,462
97545,468,460,462
97546,470,460,463
97547,472,460,461
97548,472,461,462
97549,475,461,462
97550,475,461,463
97551,476,462,463
97552,475,462,462
97553,469,461,459
97554,466,460,458
97555,461,462,463
97556,460,462,462
97557,456,460,462
97558,455,460,461
97559,458,460,461
97560,459,461,462
97561,460,461,463
97562,461,460,462
97563,459,462,463
97564,464,460,464
97565,468,461,463
97566,468,461,462
97567,469,461,461
97568,472,459,462
97569,474,462,461
97570,477,460,462
97571,475,459,462
97572,473,461,462
97573,471,460,460
97574,471,461,462
97575,467,461,463
97576,467,460,459
97577,467,462,461
97578,469,459,462
97579,466,461,462
97580,468,460,462
97581,469,462,462
97582,471,462,461
97583,473,461,462
97584,476,460,462
97585,475,461,462
97586,477,460,460
97587,477,462,461
97588,478,461,463
97589,475,460,462
97590,472,461,462
97591,469,459,461
97592,465,458,462
97593,463,462,461
97594,460,459,463
97595,458,460,462
97596,455,460,463
97597,454,461,462
97598,451,462,462
97599,451,460,460
97600,451,459,463
97601,448,459,464
97602,449,461,462
97603,450,461,461
97604,450,461,460
97605,452,460,462
97606,456,460,462
97607,455,461,461
97608,461,460,461
97609,461,461,462
97610,459,459,463
97611,462,461,461
97612,457,459,462
97613,453,461,459
97614,451,458,462
97615,447,457,462
97616,444,459,461
97617,443,460,462
97618,441,462,461
97619,437,463,462
97620,436,462,462
97621,434,461,460
97622,432,460,463
97623,435,460,462
97624,436,460,462
97625,437,461,461
97626,438,461,463
97627,439,462,462
97628,440,461,462
97629,440,458,462
97630,442,457,462
97631,442,460,460
97632,441,461,460
97633,443,461,461
97634,440,461,460
97635,440,460,462
97636,441,461,462
97637,440,460,463
97638,438,460,461
97639,439,460,462
97640,441,461,462
97641,441,461,463
97642,444,461,460
97643,447,463,462
97644,448,460,461
97645,452,461,460
97646,455,461,462
97647,457,460,459
97648,459,461,463
97649,463,459,462
97650,463,458,461
97651,462,460,461
97652,460,461,461
97653,454,460,462
97654,451,461,462
97655,445,461,463
97656,440,459,461
97657,432,462,462
97658,429,461,462
97659,427,461,461
97660,426,460,460
97661,427,461,462
97662,430,461,462
97663,434,461,462
97664,436,461,462
97665,441,461,462
97666,445,462,461
97667,448,461,461
97668,450,462,461
97669,452,461,461
97670,453,461,462
97671,451,460,462
97672,450,460,462
97673,449,461,462
97674,450,461,463
97675,446,462,462
97676,447,462,460
97677,444,461,463
97678,442,461,462
97679,442,463,460
97680,438,459,462
97681,438,462,461
97682,431,461,463
97683,426,462,458
97684,419,461,460
97685,419,462,461
97686,420,463,462
97687,420,461,461
97688,422,461,463
97689,424,461,462
97690,425,461,463
97691,426,459,462
97692,425,462,458
97693,425,462,462
97694,426,461,462
97695,425,461,462
97696,420,461,463
97697,416,459,462
97698,413,461,459
97699,411,461,462
97700,411,460,462
97701,411,462,461
97702,409,461,461
97703,407,458,461
97704,405,460,462
97705,405,461,461
97706,406,460,461
97707,409,465,462
97708,414,462,462
97709,415,461,459
97710,417,461,461
97711,423,462,459
97712,421,462,462
97713,426,461,460
97714,427,458,462
97715,427,459,462
97716,429,461,462
97717,428,462,462
97718,427,460,462
97719,425,461,462
97720,424,461,461
97721,424,461,461
97722,423,461,463
97723,421,460,461
97724,420,461,463
97725,417,459,461
97726,415,461,461
97727,411,462,460
97728,409,461,462
97729,407,460,462
97730,407,462,463
97731,406,459,461
97732,406,462,462
97733,408,461,461
97734,408,460,462
97735,407,462,462
97736,406,461,462
97737,405,461,461
97738,406,462,462
97739,406,461,461
97740,409,461,459
97741,410,460,460
97742,412,461,463
97743,415,459,462
97744,418,460,462
97745,421,460,463
97746,423,461,461
97747,419,460,463
97748,419,461,462
97749,419,461,461
97750,418,463,459
97751,416,462,462
97752,410,461,463
97753,408,459,463
97754,406,461,460
97755,402,461,462
97756,400,458,461
97757,394,461,459
97758,393,462,463
97759,390,461,462
97760,387,461,462
97761,388,462,464
97762,388,461,460
97763,387,461,459
97764,387,461,460
97765,386,462,459
97766,386,461,460
97767,388,461,462
97768,386,461,460
97769,388,461,462
97770,390,461,461
97771,390,461,462
97772,390,461,461
97773,388,460,463
97774,385,461,463
97775,379,461,461
97776,377,461,462
97777,374,460,464
97778,371,461,462
97779,369,463,459
97780,369,461,461
97781,366,460,462
97782,369,460,463
97783,366,461,462
97784,366,461,459
97785,372,462,463
97786,376,461,463
97787,378,461,462
97788,382,461,461
97789,385,462,462
97790,387,460,463
97791,393,460,462
97792,398,461,460
97793,403,462,461
97794,406,459,463
97795,407,460,461
97796,407,462,460
97797,409,461,461
97798,409,462,462
97799,413,462,462
97800,415,461,462
97801,417,462,461
97802,421,462,463
97803,425,461,459
97804,429,462,461
97805,435,460,462
97806,440,461,462
97807,445,461,462
97808,447,458,462
97809,449,461,463
97810,452,461,462
97811,455,461,462
97812,456,460,462
97813,453,462,460
97814,456,462,461
97815,455,460,463
97816,454,462,462
97817,454,460,461
97818,453,460,462
97819,451,460,461
97820,452,458,462
97821,448,462,460
97822,450,459,462
97823,448,460,461
97824,446,462,462
97825,446,460,463
97826,448,461,462
97827,443,461,462
97828,447,461,463
97829,449,461,462
97830,455,462,462
97831,455,460,462
97832,458,459,463
97833,459,460,461
97834,463,459,461
97835,462,461,462
97836,457,463,462
97837,458,461,461
97838,453,461,464
97839,454,461,463
97840,453,461,462
97841,451,461,459
97842,452,460,463
97843,451,461,462
97844,453,459,461
97845,455,461,461
97846,457,461,463
97847,460,462,461
97848,463,461,460
97849,463,462,462
97850,462,462,460
97851,463,461,461
97852,460,459,463
97853,459,462,462
97854,457,461,462
97855,457,461,461
97856,457,461,463
97857,458,461,462
97858,457,460,459
97859,455,460,461
97860,456,458,462
97861,456,460,461
97862,456,461,462
97863,458,463,462
97864,458,460,462
97865,456,460,460
97866,461,463,460
97867,462,461,462
97868,470,461,462
97869,466,461,460
97870,466,461,461
97871,467,461,462
97872,467,460,462
97873,468,462,462
97874,462,461,464
97875,464,459,464
97876,465,460,461
97877,462,462,462
97878,465,460,463
97879,465,461,462
97880,465,459,461
97881,468,461,462
97882,468,462,461
97883,472,461,462
97884,471,461,464
97885,477,458,462
97886,476,461,462
97887,479,460,462
97888,480,462,461
97889,482,460,461
97890,481,458,460
97891,480,458,461
97892,480,460,462
97893,480,459,463
97894,476,461,461
97895,476,463,462
97896,474,461,463
97897,470,461,461
97898,471,460,463
97899,475,462,462
97900,476,458,462
97901,479,460,462
97902,477,460,462
97903,480,460,463
97904,482,460,463
97905,483,462,463
97906,484,461,463
97907,486,459,461
97908,484,460,463
97909,486,462,459
97910,484,461,464
97911,486,459,462
97912,486,461,463
97913,483,459,461
97914,481,462,461
97915,478,460,463
97916,476,461,461
97917,472,461,462
97918,471,460,460
97919,466,461,459
97920,464,457,461
97921,463,461,463
97922,460,458,463
97923,458,459,462
97924,457,461,463
97925,453,459,462
97926,455,460,462
97927,455,460,461
97928,454,461,461
97929,455,461,463
97930,455,461,461
97931,459,459,462
97932,456,461,462
97933,456,461,462
97934,454,461,462
97935,447,460,461
97936,447,461,461
97937,447,461,458
97938,444,460,462
97939,442,461,463
97940,443,460,462
97941,444,460,462
97942,446,459,462
97943,448,458,462
97944,452,460,463
97945,455,460,463
97946,456,460,462
97947,458,461,457
97948,460,461,460
97949,465,459,461
97950,466,461,461
97951,468,461,462
97952,468,461,462
97953,466,460,460
97954,469,461,461
97955,467,461,462
97956,466,462,461
97957,463,461,460
97958,461,460,462
97959,460,462,461
97960,458,458,462
97961,460,459,463
97962,459,461,461
97963,459,459,462
97964,458,461,463
97965,458,459,464
97966,457,461,461
97967,456,459,463
97968,458,460,460
97969,460,459,464
97970,456,462,458
97971,458,460,462
97972,460,458,462
97973,461,460,460
97974,461,462,460
97975,461,460,464
97976,460,461,460
97977,460,458,461
97978,460,459,462
97979,460,461,462
97980,459,461,463
97981,457,461,463
97982,456,460,463
97983,453,460,460
97984,451,460,459
97985,449,462,461
97986,451,460,463
97987,452,462,461
97988,453,461,462
97989,455,461,462
97990,456,460,462
97991,455,461,461
97992,454,460,459
97993,453,461,463
97994,456,461,463
97995,451,459,462
97996,452,460,461
97997,452,462,461
97998,449,460,460
97999,451,460,462
98000,450,460,463
98001,450,461,462
98002,449,461,462
98003,449,460,461
98004,446,462,462
98005,448,461,462
98006,448,461,462
98007,446,460,461
98008,446,461,461
98009,446,461,459
98010,446,460,461
98011,445,459,462
98012,440,460,462
98013,438,462,461
98014,441,460,462
98015,437,461,461
98016,441,460,461
98017,439,459,460
98018,441,461,462
98019,441,461,462
98020,442,461,462
98021,440,462,463
98022,441,459,461
98023,444,460,462
98024,444,461,462
98025,446,460,459
98026,448,459,463
98027,448,460,461
98028,447,461,461
98029,448,461,460
98030,446,461,460
98031,443,460,463
98032,448,460,462
98033,448,460,462
98034,450,459,461
98035,451,461,461
98036,453,461,460
98037,451,461,459
98038,454,460,461
98039,455,459,462
98040,456,457,461
98041,456,460,461
98042,458,460,460
98043,457,459,461
98044,458,461,463
98045,460,462,461
98046,460,461,460
98047,460,461,460
98048,460,460,463
98049,463,459,462
98050,466,461,461
98051,463,460,460
98052,461,461,460
98053,459,460,461
98054,457,462,462
98055,457,461,461
98056,456,461,462
98057,454,461,460
98058,452,459,461
98059,452,460,463
98060,451,459,461
98061,451,461,463
98062,451,462,462
98063,452,460,461
98064,452,461,463
98065,451,458,461
98066,449,459,462
98067,448,461,462
98068,449,460,462
98069,449,461,462
98070,448,461,463
98071,447,461,462
98072,445,461,463
98073,444,460,461
98074,443,461,461
98075,444,461,462
98076,444,460,462
98077,443,461,462
98078,441,462,462
98079,438,459,462
98080,434,459,463
98081,432,462,463
98082,430,461,460
98083,432,461,462
98084,434,462,462
98085,436,461,462
98086,439,461,463
98087,438,461,462
98088,446,460,464
98089,448,460,462
98090,448,461,462
98091,448,461,460
98092,444,462,462
98093,443,460,460
98094,443,460,462
98095,442,461,460
98096,440,461,458
98097,439,461,462
98098,438,462,462
98099,437,461,462
98100,435,461,461
98101,433,462,460
98102,431,460,461
98103,431,459,462
98104,431,460,462
98105,434,463,463
98106,435,462,462
98107,437,461,462
98108,437,461,462
98109,435,462,463
98110,433,462,460
98111,434,462,461
98112,434,461,463
98113,433,459,462
98114,433,461,461
98115,431,461,459
98116,431,462,461
98117,432,462,461
98118,431,461,461
98119,431,458,462
98120,429,462,463
98121,430,460,461
98122,431,459,461
98123,433,460,463
98124,432,461,459
98125,435,460,461
98126,434,461,462
98127,437,461,462
98128,435,462,463
98129,438,459,463
98130,438,462,461
98131,439,462,462
98132,441,461,462
98133,441,462,463
98134,441,458,461
98135,441,459,462
98136,439,460,462
98137,436,462,462
98138,436,461,460
98139,434,461,460
98140,434,461,459
98141,437,462,462
98142,439,462,462
98143,442,460,463
98144,443,461,463
98145,443,461,462
98146,441,462,462
98147,439,461,462
98148,437,461,461
98149,436,459,463
98150,436,460,459
98151,436,460,461
98152,434,460,462
98153,434,460,459
98154,438,460,462
98155,437,461,459
98156,436,462,463
98157,436,461,463
98158,439,462,461
98159,440,461,462
98160,440,457,461
98161,440,462,461
98162,441,461,462
98163,443,460,462
98164,446,462,462
98165,446,462,463
98166,449,461,462
98167,449,461,462
98168,451,461,462
98169,451,461,462
98170,452,461,461
98171,450,462,460
98172,447,461,464
98173,443,459,462
98174,441,459,459
98175,438,461,461
98176,438,462,461
98177,435,460,462
98178,437,461,462
98179,437,462,464
98180,440,462,463
98181,442,461,459
98182,443,460,460
98183,443,463,461
98184,445,460,461
98185,447,461,462
98186,446,462,461
98187,444,461,460
98188,444,460,463
98189,441,461,462
98190,443,459,461
98191,443,460,462
98192,444,460,462
98193,448,461,462
98194,450,462,459
98195,455,465,458
98196,461,461,462
98197,465,461,462
98198,467,460,462
98199,463,460,462
98200,454,460,460
98201,451,460,460
98202,446,460,462
98203,443,458,461
98204,441,458,462
98205,436,461,463
98206,439,458,460
98207,439,459,462
98208,442,461,460
98209,442,460,462
98210,441,461,461
98211,442,461,463
98212,442,461,461
98213,446,461,461
98214,447,460,461
98215,449,461,461
98216,450,461,459
98217,453,461,461
98218,454,460,463
98219,454,461,461
98220,456,461,463
98221,457,458,460
98222,457,460,462
98223,459,462,460
98224,461,461,461
98225,460,461,462
98226,460,461,464
98227,457,462,462
98228,456,461,463
98229,453,460,462
98230,452,459,462
98231,451,461,462
98232,448,460,463
98233,448,460,462
98234,449,461,462
98235,447,461,462
98236,447,461,463
98237,451,460,462
98238,452,460,461
98239,455,462,461
98240,455,461,460
98241,456,460,464
98242,457,459,462
98243,456,462,462
98244,454,458,461
98245,452,460,461
98246,453,462,464
98247,451,461,461
98248,451,460,460
98249,452,460,461
98250,451,464,464
98251,451,459,461
98252,456,460,463
98253,455,461,461
98254,457,461,462
98255,458,462,461
98256,460,462,461
98257,459,459,462
98258,462,463,462
98259,462,460,461
98260,464,460,460
98261,464,459,462
98262,464,461,463
98263,465,462,462
98264,464,460,462
98265,463,461,462
98266,461,461,459
98267,462,461,463
98268,461,460,461
98269,463,461,462
98270,462,462,462
98271,460,460,463
98272,462,461,461
98273,461,460,462
98274,461,460,462
98275,460,461,462
98276,461,461,460
98277,463,461,462
98278,465,458,462
98279,467,459,462
98280,467,458,461
98281,470,461,463
98282,472,461,461
98283,470,460,461
98284,469,458,461
98285,468,462,462
98286,464,463,462
98287,461,460,463
98288,459,460,463
98289,458,461,461
98290,458,460,461
98291,456,459,463
98292,455,461,461
98293,455,460,462
98294,455,460,461
98295,455,459,462
98296,454,459,463
98297,453,461,459
98298,453,461,459
98299,453,460,460
98300,455,461,462
98301,457,461,462
98302,457,460,462
98303,462,461,461
98304,468,462,462
98305,472,462,461
98306,475,461,462
98307,478,461,459
98308,480,461,462
98309,481,461,462
98310,481,460,460
98311,479,460,460
98312,478,461,461
98313,473,462,461
98314,469,460,463
98315,462,462,461
98316,460,461,461
98317,455,461,460
98318,451,460,462
98319,445,460,459
98320,444,459,461
98321,443,461,461
98322,441,462,462
98323,440,461,463
98324,441,460,462
98325,440,462,462
98326,441,460,461
98327,441,462,462
98328,441,462,459
98329,443,458,462
98330,444,462,462
98331,446,461,462
98332,446,460,462
98333,445,462,461
98334,449,461,464
98335,448,459,463
98336,448,461,461
98337,446,461,461
98338,443,461,461
98339,442,459,461
98340,441,458,464
98341,440,462,463
98342,443,461,462
98343,443,465,461
98344,444,459,462
98345,446,461,463
98346,446,461,463
98347,447,461,462
98348,448,459,462
98349,449,459,461
98350,448,463,461
98351,449,460,463
98352,452,462,460
98353,453,460,463
98354,454,460,462
98355,460,460,462
98356,463,462,463
98357,465,459,462
98358,466,461,460
98359,468,457,462
98360,468,461,462
98361,468,461,462
98362,465,461,460
98363,459,460,461
98364,455,460,461
98365,454,461,461
98366,451,461,462
98367,451,462,462
98368,452,461,460
98369,451,463,460
98370,455,461,463
98371,456,461,462
98372,455,460,462
98373,457,462,462
98374,458,460,463
98375,454,461,459
98376,455,460,463
98377,455,458,462
98378,453,458,461
98379,453,461,460
98380,453,460,461
98381,455,459,462
98382,456,462,462
98383,461,461,460
98384,464,461,462
98385,469,460,461
98386,476,459,463
98387,480,460,462
98388,482,461,462
98389,483,461,461
98390,482,462,462
98391,478,461,461
98392,473,460,461
98393,468,462,462
98394,464,458,461
98395,458,459,462
98396,455,461,460
98397,454,460,462
98398,453,461,462
98399,459,459,461
98400,458,461,463
98401,463,461,463
98402,465,460,463
98403,465,461,462
98404,464,461,461
98405,466,462,461
98406,464,461,461
98407,463,461,460
98408,464,458,462
98409,466,460,462
98410,466,461,462
98411,468,461,462
98412,469,460,462
98413,473,461,462
98414,476,460,463
98415,474,461,462
98416,475,462,460
98417,477,459,463
98418,475,461,457
98419,475,461,462
98420,477,460,463
98421,479,462,464
98422,481,460,461
98423,481,460,461
98424,483,461,462
98425,481,459,462
98426,480,459,462
98427,476,460,463
98428,473,462,462
98429,470,461,462
98430,463,461,462
98431,460,463,464
98432,458,461,460
98433,456,461,463
98434,459,461,463
98435,462,460,461
98436,463,461,462
98437,467,461,463
98438,469,460,461
98439,467,461,460
98440,467,460,462
98441,464,461,459
98442,465,460,462
98443,460,459,462
98444,459,462,462
98445,458,461,462
98446,457,462,462
98447,457,461,460
98448,461,461,462
98449,459,459,463
98450,463,458,462
98451,463,461,462
98452,465,461,462
98453,467,460,463
98454,466,462,458
98455,465,460,463
98456,465,459,462
98457,462,461,462
98458,459,460,460
98459,461,459,462
98460,460,460,463
98461,463,461,459
98462,463,459,462
98463,463,461,462
98464,461,460,463
98465,462,462,462
98466,457,460,462
98467,457,462,461
98468,457,461,461
98469,457,462,466
98470,457,460,461
98471,459,461,462
98472,462,459,461
98473,462,459,461
98474,464,460,461
98475,468,460,461
98476,467,462,458
98477,469,459,462
98478,472,460,463
98479,469,461,459
98480,468,458,462
98481,465,461,461
98482,461,463,462
98483,456,460,462
98484,460,462,462
98485,460,459,462
98486,461,457,462
98487,465,460,461
98488,468,461,461
98489,472,460,460
98490,476,461,459
98491,479,460,462
98492,479,463,463
98493,478,461,460
98494,475,459,462
98495,473,461,460
98496,476,461,462
98497,473,461,461
98498,471,460,460
98499,467,459,461
98500,464,461,462
98501,460,461,463
98502,460,461,461
98503,458,460,462
98504,457,462,463
98505,455,461,460
98506,463,460,462
98507,465,458,460
98508,471,460,462
98509,467,461,462
98510,466,461,460
98511,465,458,461
98512,463,458,461
98513,461,461,462
98514,459,460,462
98515,460,459,462
98516,460,460,462
98517,461,461,461
98518,460,461,461
98519,463,462,460
98520,464,459,462
98521,465,461,462
98522,465,461,458
98523,465,461,462
98524,464,459,464
98525,462,461,463
98526,463,461,462
98527,462,463,462
98528,460,460,463
98529,460,462,462
98530,460,463,462
98531,461,461,463
98532,467,461,459
98533,470,464,462
98534,471,462,462
98535,472,461,460
98536,473,462,462
98537,473,461,461
98538,472,459,463
98539,468,461,461
98540,468,462,461
98541,466,460,464
98542,462,462,461
98543,462,458,462
98544,464,461,463
98545,464,458,460
98546,468,460,463
98547,470,461,462
98548,471,462,460
98549,471,459,461
98550,471,461,461
98551,470,461,458
98552,467,459,462
98553,465,461,463
98554,469,461,460
98555,477,462,460
98556,482,457,462
98557,488,459,462
98558,490,460,462
98559,494,461,462
98560,497,461,461
98561,499,460,461
98562,499,461,460
98563,495,460,459
98564,488,461,459
98565,484,459,461
98566,478,460,461
98567,476,460,462
98568,477,458,462
98569,480,459,461
98570,482,461,458
98571,484,461,462
98572,487,461,462
98573,490,461,460
98574,490,461,463
98575,490,462,462
98576,486,460,462
98577,480,460,463
98578,474,461,463
98579,470,461,463
98580,468,460,463
98581,470,457,462
98582,470,461,462
98583,471,461,462
98584,473,461,462
98585,477,462,462
98586,477,462,462
98587,480,461,462
98588,477,462,458
98589,475,462,462
98590,474,461,459
98591,471,460,462
98592,469,461,463
98593,475,460,461
98594,485,460,462
98595,492,460,461
98596,497,457,462
98597,502,461,463
98598,506,460,462
98599,508,460,463
98600,505,460,461
98601,509,460,462
98602,505,461,461
98603,502,461,462
98604,495,462,462
98605,488,461,460
98606,485,461,462
98607,485,462,460
98608,487,462,461
98609,486,461,463
98610,491,462,461
98611,491,458,462
98612,494,461,461
98613,498,459,461
98614,500,460,462
98615,500,459,461
98616,496,458,464
98617,491,461,463
98618,479,463,463
98619,476,460,461
98620,471,460,462
98621,468,461,461
98622,469,462,462
98623,468,460,463
98624,470,458,463
98625,471,461,461
98626,477,461,462
98627,483,461,461
98628,491,461,460
98629,496,461,463
98630,503,460,460
98631,509,461,463
98632,512,464,462
98633,515,461,462
98634,524,462,462
98635,528,462,462
98636,528,461,463
98637,524,461,462
98638,515,461,464
98639,510,461,460
98640,503,459,461
98641,494,462,462
98642,490,460,463
98643,492,461,462
98644,492,456,463
98645,492,462,463
98646,494,461,461
98647,496,462,462
98648,496,462,460
98649,492,461,462
98650,487,461,463
98651,486,461,459
98652,482,460,462
98653,476,460,462
98654,474,462,461
98655,472,461,462
98656,470,460,463
98657,471,461,462
98658,474,460,463
98659,477,459,463
98660,484,461,463
98661,486,460,462
98662,494,460,462
98663,497,460,462
98664,496,461,464
98665,495,461,461
98666,493,460,462
98667,485,460,460
98668,488,461,461
98669,491,461,462
98670,491,462,464
98671,492,459,462
98672,492,461,461
98673,493,460,462
98674,493,461,462
98675,495,462,462
98676,492,461,463
98677,486,461,461
98678,480,461,462
98679,474,460,462
98680,470,462,462
98681,468,462,462
98682,467,462,461
98683,466,460,464
98684,472,460,461
98685,477,462,462
98686,483,462,459
98687,487,461,461
98688,491,462,463
98689,493,461,463
98690,495,462,462
98691,494,460,463
98692,490,461,463
98693,490,458,461
98694,485,461,460
98695,480,461,460
98696,475,458,462
98697,473,461,462
98698,471,460,461
98699,470,462,463
98700,467,460,459
98701,466,461,463
98702,466,458,461
98703,466,461,462
98704,465,458,462
98705,466,462,457
98706,465,460,462
98707,467,461,461
98708,472,461,464
98709,480,461,460
98710,489,458,461
98711,495,460,463
98712,500,461,462
98713,500,460,463
98714,506,462,463
98715,506,462,462
98716,507,461,462
98717,505,460,461
98718,505,462,462
98719,502,461,463
98720,497,460,461
98721,494,459,463
98722,492,461,460
98723,489,461,462
98724,485,461,462
98725,489,461,463
98726,490,459,461
98727,490,461,463
98728,492,461,462
98729,495,461,462
98730,494,458,461
98731,494,462,462
98732,494,460,462
98733,491,462,463
98734,487,461,462
98735,484,460,461
98736,482,459,462
98737,479,462,462
98738,477,461,461
98739,475,461,463
98740,474,461,463
98741,476,461,463
98742,481,462,463
98743,485,461,461
98744,489,461,462
98745,493,460,461
98746,496,460,462
98747,497,461,462
98748,500,460,462
98749,501,461,461
98750,503,461,463
98751,502,461,460
98752,502,460,461
98753,499,461,462
98754,499,460,462
98755,496,461,462
98756,500,460,463
98757,502,461,460
98758,504,461,463
98759,507,461,460
98760,505,459,463
98761,499,459,464
98762,503,461,460
98763,506,460,463
98764,509,459,461
98765,513,462,463
98766,513,462,462
98767,508,461,459
98768,505,458,462
98769,502,462,462
98770,499,460,463
98771,499,459,463
98772,500,459,462
98773,502,461,462
98774,506,460,462
98775,513,458,462
98776,520,463,462
98777,526,460,462
98778,535,460,462
98779,538,459,462
98780,538,460,462
98781,534,462,462
98782,533,461,461
98783,535,459,462
98784,535,460,463
98785,537,461,462
1741016289357,NEW REP,,
98786,539,460,462
98787,536,461,462
98788,537,462,462
98789,533,460,462
98790,529,458,462
98791,525,461,462
98792,522,460,463
98793,522,458,462
98794,525,461,462
98795,526,458,463
98796,523,459,461
98797,514,460,461
98798,510,462,462
98799,507,459,461
98800,504,461,461
98801,502,460,462
98802,503,464,463
98803,501,461,463
98804,499,462,458
98805,501,461,463
98806,505,459,461
98807,506,461,461
98808,509,460,462
98809,509,462,462
98810,512,460,461
98811,514,459,463
98812,515,461,462
98813,515,460,462
98814,517,461,460
98815,519,461,462
98816,524,462,460
98817,529,462,462
98818,528,461,461
98819,527,460,463
98820,523,461,464
98821,521,460,463
98822,520,461,462
98823,517,462,462
98824,510,460,460
98825,508,461,463
98826,505,461,462
98827,506,457,461
98828,508,460,462
98829,508,461,460
98830,510,460,462
98831,511,460,461
98832,510,461,461
98833,508,461,461
98834,512,461,461
98835,510,460,460
98836,513,460,461
98837,514,459,462
98838,514,462,463
98839,513,460,462
98840,508,461,461
98841,502,462,462
98842,502,462,463
98843,499,461,460
98844,498,460,461
98845,499,459,462
98846,497,461,462
98847,498,461,462
98848,496,458,462
98849,499,461,463
98850,499,461,463
98851,501,459,461
98852,501,461,462
98853,506,462,461
98854,508,461,463
98855,507,462,461
98856,504,462,464
98857,498,462,463
98858,497,463,463
98859,492,459,462
98860,487,463,462
98861,485,463,461
98862,482,460,460
98863,478,462,462
98864,472,462,459
98865,470,461,462
98866,467,462,459
98867,465,461,462
98868,460,460,461
98869,455,462,462
98870,448,461,463
98871,443,461,462
98872,439,461,461
98873,436,462,462
98874,435,461,462
98875,432,461,459
98876,436,462,463
98877,435,462,462
98878,443,459,462
98879,446,461,462
98880,449,462,463
98881,454,461,459
98882,459,461,462
98883,465,461,462
98884,472,460,462
98885,475,461,462
98886,476,462,460
98887,482,459,462
98888,485,462,462
98889,488,460,461
98890,492,461,463
98891,492,461,461
98892,496,461,463
98893,492,461,460
98894,488,462,462
98895,482,462,462
98896,474,462,463
98897,471,460,461
98898,468,461,462
98899,463,461,462
98900,464,457,462
98901,461,461,463
98902,459,461,462
98903,459,461,459
98904,457,459,461
98905,459,460,462
98906,458,458,462
98907,461,462,462
98908,460,460,461
98909,464,462,462
98910,463,463,462
98911,468,461,462
98912,469,461,461
98913,470,461,462
98914,469,461,462
98915,467,459,462
98916,467,460,462
98917,466,461,462
98918,466,461,462
98919,464,458,462
98920,463,461,462
98921,462,460,463
98922,460,461,460
98923,456,461,464
98924,455,462,460
98925,451,459,463
98926,450,463,462
98927,449,460,460
98928,453,461,462
98929,455,460,459
98930,458,461,463
98931,460,462,459
98932,463,462,461
98933,466,460,462
98934,471,462,462
98935,476,461,462
98936,482,460,462
98937,485,461,461
98938,485,461,463
98939,486,461,462
98940,486,462,461
98941,487,461,461
98942,480,462,461
98943,480,461,461
98944,477,461,461
98945,475,461,462
98946,476,460,460
98947,474,462,462
98948,470,461,461
98949,464,461,462
98950,466,460,463
98951,464,462,461
98952,464,462,461
98953,462,461,460
98954,465,461,463
98955,463,461,461
98956,465,461,461
98957,460,461,460
98958,460,459,462
98959,459,460,463
98960,457,460,464
98961,458,462,461
98962,458,461,462
98963,461,460,462
98964,462,462,461
98965,464,459,462
98966,461,462,461
98967,457,461,463
98968,452,462,461
98969,452,461,463
98970,450,462,461
98971,453,458,462
98972,455,462,462
98973,458,462,461
98974,464,462,462
98975,469,460,462
98976,475,462,463
98977,480,461,460
98978,483,460,462
98979,486,461,461
98980,486,459,461
98981,483,461,462
98982,479,461,461
98983,478,461,462
98984,475,461,461
98986,468,460,462
98987,470,462,461
98987,466,458,461
98988,456,461,462
98989,450,459,460
98990,442,461,461
98991,436,460,461
98992,436,460,462
98993,437,462,462
98994,438,458,460
98995,442,462,462
98996,443,460,460
98997,439,462,459
98998,437,460,461
98999,436,461,463
99000,441,460,462
99001,449,461,462
99002,453,459,463
99003,457,461,459
99004,465,461,464
99005,470,461,461
99006,476,458,462
99007,479,462,463
99008,485,461,462
99009,488,460,462
99010,490,462,462
99011,488,461,460
99012,489,458,463
99013,487,462,461
99014,482,462,462
99015,485,459,463
99016,482,460,462
99017,474,462,462
99018,473,461,462
99019,469,459,463
99020,461,461,462
99021,444,462,461
99022,427,461,462
99023,414,461,460
99024,402,460,462
99025,397,460,462
99026,392,462,462
99027,393,459,462
99028,393,461,462
99029,398,459,462
99030,405,461,462
99031,414,461,462
99032,426,460,462
99033,440,460,462
99034,451,461,462
99035,457,462,461
99036,465,460,462
99037,468,459,463
99038,470,461,462
99039,466,461,459
99040,463,461,463
99041,451,463,459
99042,440,462,463
99043,427,461,463
99044,417,462,462
99045,408,462,462
99046,409,461,462
99047,414,461,462
99048,419,461,462
99049,423,462,460
99050,428,462,463
99051,436,459,461
99052,445,461,463
99053,447,461,461
99054,450,462,460
99055,453,459,462
99056,453,461,461
99057,455,460,462
99058,455,460,462
99059,463,462,462
99060,466,461,460
99061,468,461,462
99062,471,462,463
99063,477,460,462
99064,482,461,461
99065,486,461,462
99066,491,462,461
99067,496,461,463
99068,497,461,459
99069,498,461,461
99070,496,461,463
99071,494,458,462
99072,487,462,461
99073,480,461,461
99074,479,461,461
99075,476,459,462
99076,475,462,461
99077,478,459,463
99078,479,462,462
99079,481,460,462
99080,485,457,462
99081,491,461,462
99082,494,461,460
99083,504,462,461
99084,508,459,462
99085,514,462,461
99086,519,460,462
99087,523,458,461
99088,526,460,461
99089,528,461,462
99090,529,462,461
99091,529,458,462
99092,525,460,463
99093,523,460,462
99094,517,461,463
99095,509,460,458
99096,505,461,463
99097,507,460,461
99098,507,460,463
99099,510,461,462
99100,509,458,460
99101,507,462,462
99102,507,461,461
99103,512,460,463
99104,510,461,462
99105,507,461,460
99106,504,460,461
99107,498,461,463
99108,491,463,462
99109,483,461,461
99110,476,461,462
99111,469,461,463
99112,466,461,463
99113,467,461,462
99114,468,460,463
99115,471,462,464
99116,475,461,463
99117,484,462,460
99118,487,461,463
99119,494,461,459
99120,495,462,462
99121,493,459,461
99122,488,461,459
99123,488,461,462
99124,488,457,462
99125,488,460,462
99126,491,458,462
99127,494,462,462
99128,496,462,461
99129,498,461,461
99130,499,460,462
99131,502,461,462
99132,503,459,462
99133,502,461,462
99134,501,459,462
99135,499,460,461
99136,499,462,461
99137,497,458,462
99138,494,462,461
99139,492,462,461
99140,494,463,462
99141,496,461,461
99142,494,461,462
99143,493,461,462
99144,493,462,460
99145,492,461,462
99146,491,459,462
99147,495,461,462
99148,500,461,460
99149,504,462,462
99150,509,461,457
99151,515,462,463
99152,520,460,462
99153,516,460,461
99154,514,462,461
99155,508,458,462
99156,504,463,460
99157,500,461,460
99158,501,462,460
99159,505,462,459
99160,508,462,463
99161,514,462,462
99162,519,460,463
99163,526,460,463
99164,525,461,462
99165,527,459,459
99166,533,462,462
99167,536,461,461
99168,537,460,462
99169,537,462,463
99170,542,461,461
99171,545,460,462
99172,547,459,462
99173,551,460,460
99174,553,460,461
99175,555,460,460
99176,556,461,460
99177,554,462,462
99178,553,460,462
99179,551,462,461
99180,548,459,463
99181,545,461,462
99182,542,459,463
99183,537,462,462
99184,536,459,461
99185,536,462,462
99186,536,460,462
99187,532,461,461
99188,536,460,461
99189,535,461,461
99190,538,461,462
99191,537,460,462
99192,539,460,462
99193,537,461,463
99194,538,460,463
99195,538,461,460
99196,536,460,461
99197,533,461,462
99198,531,460,462
99199,528,460,463
99200,524,461,459
99201,520,461,461
99202,518,460,462
99203,515,459,463
99204,511,461,461
99205,505,460,461
99206,509,462,461
99207,509,461,463
99208,512,461,463
99209,512,461,463
99210,514,460,461
99211,520,460,462
99212,520,458,463
99213,516,462,461
99214,512,460,463
99215,500,462,462
99216,494,460,461
99217,481,462,462
99218,470,460,462
99219,468,461,460
99220,468,460,461
99221,470,459,461
99222,473,461,463
99223,480,458,462
99224,488,460,460
99225,492,460,462
99226,499,460,463
99227,505,461,462
99228,510,461,462
99229,514,461,462
99230,515,461,461
99231,517,458,462
99232,518,460,462
99233,519,460,462
99234,521,460,461
99235,522,462,461
99236,526,460,462
99237,527,461,463
99238,525,462,462
99239,526,459,461
99240,525,462,461
99241,520,459,462
99242,518,460,460
99243,516,462,461
99244,512,460,459
99245,515,461,461
99246,519,461,462
99247,522,461,461
99248,524,461,461
99249,527,458,461
99250,528,460,461
99251,531,460,461
99252,533,461,461
99253,533,458,462
99254,533,461,462
99255,534,460,462
99256,531,461,462
99257,531,459,461
99258,530,462,462
99259,529,460,463
99260,530,461,463
99261,526,460,458
99262,530,461,462
99263,529,462,462
99264,531,461,461
99265,530,461,462
99266,533,460,460
99267,535,460,460
99268,536,459,460
99269,540,459,462
99270,540,460,462
99271,540,459,462
99272,541,461,462
99273,538,460,462
99274,535,458,462
99275,533,461,461
99276,530,459,461
99277,528,460,463
99278,523,461,462
99279,524,462,461
99280,522,461,461
99281,524,457,461
99282,524,459,461
99283,525,461,461
99284,528,461,462
99285,527,461,461
99286,531,460,461
99287,532,462,459
99288,534,462,462
99289,531,460,463
99290,530,461,462
99291,530,457,462
99292,529,460,463
99293,528,460,461
99294,526,462,461
99295,523,460,462
99296,521,457,462
99297,519,460,462
99298,521,458,462
99299,518,459,462
99300,518,459,460
99301,520,460,461
99302,521,460,461
99303,524,462,461
99304,524,462,462
99305,526,461,461
99306,525,459,462
99307,527,460,462
99308,523,458,461
99309,523,458,461
99310,519,459,461
99311,518,461,462
99312,513,460,461
99313,510,461,460
99314,505,461,463
99315,503,461,460
99316,501,460,463
99317,499,459,461
99318,500,461,461
99319,499,460,460
99320,498,460,461
99321,503,459,461
99322,503,460,461
99323,506,460,461
99324,503,460,462
99325,506,459,463
99326,508,461,461
99327,509,460,461
99328,511,461,463
99329,512,460,461
99330,514,458,461
99331,513,460,461
99332,515,460,461
99333,511,460,462
99334,509,461,463
99335,505,459,463
99336,501,461,462
99337,503,461,460
99338,499,462,463
99339,503,460,461
99340,499,461,462
99341,502,459,462
99342,498,460,463
99343,501,460,461
99344,501,461,462
99345,502,462,460
99346,501,460,461
99347,501,461,460
99348,501,461,462
99349,500,459,462
99350,497,461,461
99351,496,460,461
99352,494,459,461
99353,489,459,461
99354,490,458,463
99355,490,460,461
99356,486,461,463
99357,487,461,460
99358,486,460,462
99359,484,462,462
99360,483,462,461
99361,488,462,463
99362,487,461,461
99363,492,460,461
99364,494,462,459
99365,497,460,462
99366,498,460,462
99367,499,459,463
99368,502,461,462
99369,503,458,462
99370,503,462,461
99371,504,461,461
99372,503,461,461
99373,501,461,463
99374,498,461,461
99375,496,462,461
99376,491,458,461
99377,492,459,462
99378,489,461,462
99379,489,461,463
99380,485,461,460
99381,487,461,464
99382,489,460,463
99383,488,457,461
99384,485,460,461
99385,485,462,462
99386,483,460,461
99387,478,461,462
99388,480,462,461
99389,478,462,461
99390,481,462,460
99391,477,461,463
99392,480,460,461
99393,479,460,463
99394,477,460,462
99395,477,463,462
99396,476,461,460
99397,477,462,460
99398,474,459,461
99399,474,461,462
99400,471,461,462
99401,475,461,462
99402,474,459,461
99403,475,461,462
99404,473,462,462
99405,470,461,461
99406,470,463,461
99407,468,460,461
99408,467,461,462
99409,466,460,462
99410,465,462,460
99411,466,458,462
99412,468,461,461
99413,471,462,462
99414,471,460,463
99415,469,460,462
99416,472,460,462
99417,472,461,462
99418,470,461,460
99419,471,461,461
99420,473,461,463
99421,474,461,460
99422,473,461,461
99423,472,460,461
99424,474,460,463
99425,473,462,463
99426,475,461,462
99427,475,461,461
99428,474,461,461
99429,475,463,462
99430,474,458,462
99431,471,461,461
99432,469,463,461
99433,466,461,459
99434,463,461,462
99435,462,461,460
99436,459,459,461
99437,456,461,463
99438,455,462,461
99439,453,460,459
99440,452,460,461
99441,451,461,461
99442,451,457,461
99443,447,462,461
99444,450,459,463
99445,449,462,462
99446,450,460,462
99447,446,462,460
99448,444,461,462
99449,444,461,460
99450,440,458,461
99451,438,460,462
99452,435,460,462
99453,432,461,463
99454,434,461,460
99455,433,458,462
99456,437,461,462
99457,438,461,461
99458,441,461,462
99459,444,461,462
99460,446,461,463
99461,450,461,462
99462,453,459,462
99463,457,461,462
99464,460,461,461
99465,461,460,459
99466,463,461,462
99467,463,460,459
99468,466,459,463
99469,465,462,462
99470,461,462,463
99471,454,461,460
99472,450,460,462
99473,447,462,461
99474,443,461,462
99475,440,458,460
99476,440,461,462
99477,438,462,461
99478,438,460,462
99479,439,461,461
99480,446,460,461
99481,448,462,461
99482,451,461,459
99483,454,461,462
99484,460,460,462
99485,462,462,459
99486,468,460,462
99487,472,461,461
99488,474,460,462
99489,475,461,462
99490,473,461,461
99491,476,461,462
99492,473,464,461
99493,473,460,462
99494,467,461,462
99495,464,461,460
99496,462,461,462
99497,458,461,464
99498,453,461,461
99499,447,461,462
99500,447,461,463
99501,445,462,460
99502,446,459,461
99503,448,462,462
99504,449,460,462
99505,449,462,462
99506,448,461,462
99507,446,462,461
99508,444,460,462
99509,443,456,463
99510,442,462,462
99511,447,461,462
99512,446,459,461
99513,448,459,463
99514,450,462,462
99515,451,461,463
99516,456,461,463
99517,456,460,460
99518,461,460,462
99519,463,462,462
99520,464,459,461
99521,467,462,462
99522,469,462,462
99523,470,461,463
99524,474,460,461
99525,476,461,461
99526,477,462,463
99527,478,462,462
99528,478,459,462
99529,477,462,463
99530,476,461,460
99531,474,461,461
99532,471,461,460
99533,469,461,463
99534,465,460,462
99535,461,461,463
99536,458,462,461
99537,458,462,461
99538,457,458,462
99539,459,462,462
99540,457,462,462
99541,460,462,461
99542,461,461,462
99543,462,462,463
99544,464,461,461
99545,466,461,463
99546,467,461,463
99547,471,460,462
99548,468,461,463
99549,471,461,462
99550,472,460,462
99551,472,462,463
99552,471,462,462
99553,469,461,463
99554,463,462,461
99555,464,460,462
99556,460,461,461
99557,459,460,461
99558,458,459,460
99559,461,461,462
99560,459,461,462
99561,459,460,462
99562,460,461,462
99563,458,461,461
99564,457,462,461
99565,456,461,462
99566,455,458,463
99567,455,460,463
99568,452,458,462
99569,455,460,461
99570,454,460,463
99571,454,462,462
99572,455,461,461
99573,452,460,459
99574,452,460,463
99575,452,462,462
99576,450,461,461
99577,450,458,462
99578,449,460,461
99579,448,460,462
99580,445,460,463
99581,439,460,462
99582,442,461,463
99583,440,461,462
99584,440,461,461
99585,443,460,462
99586,446,461,463
99587,448,461,460
99588,450,457,461
99589,449,461,462
99590,450,459,462
99591,452,461,464
99592,452,461,461
99593,449,462,462
99594,442,460,463
99595,444,461,462
99596,442,460,463
99597,443,462,460
99598,443,460,462
99599,439,461,461
99600,442,461,461
99601,441,461,459
99602,441,458,461
99603,443,461,461
99604,446,461,462
99605,448,460,462
99606,451,461,461
99607,450,461,461
99608,450,460,463
99609,450,460,460
99610,445,462,463
99611,440,460,462
99612,436,460,461
99613,434,458,462
99614,430,461,462
99615,429,460,461
99616,430,461,463
99617,431,461,461
99618,433,459,464
99619,434,460,462
99620,436,460,464
99621,436,461,461
99622,438,460,461
99623,438,461,462
99624,438,460,461
99625,442,459,462
99626,444,461,462
99627,445,460,460
99628,446,459,461
99629,447,461,461
99630,446,461,462
99631,446,457,463
99632,448,461,463
99633,445,460,464
99634,444,462,461
99635,442,460,461
99636,440,460,460
99637,438,460,462
99638,436,460,460
99639,433,458,462
99640,432,461,462
99641,429,458,462
99642,426,460,463
99643,425,459,462
99644,424,460,463
99645,422,460,462
99646,419,461,462
99647,413,462,460
99648,410,462,461
99649,404,457,461
99650,402,460,463
99651,400,460,462
99652,396,462,462
99653,397,461,464
99654,393,462,462
99655,393,461,461
99656,392,461,462
99657,391,462,464
99658,396,461,462
99659,397,461,460
99660,400,459,462
99661,406,460,462
99662,409,461,461
99663,414,460,462
99664,418,460,461
99665,424,463,462
99666,427,460,462
99667,429,460,462
99668,433,460,461
99669,434,459,463
99670,434,460,462
99671,433,460,462
99672,430,461,460
99673,423,462,460
99674,424,459,462
99675,421,462,458
99676,424,461,462
99677,423,462,463
99678,425,461,462
99679,426,461,462
99680,427,461,463
99681,431,461,462
99682,438,460,461
99683,441,461,463
99684,450,460,462
99685,452,461,459
99686,460,461,461
99687,464,460,463
99688,467,461,464
99689,473,461,462
99690,473,461,463
99691,473,460,462
99692,474,460,462
99693,465,461,462
99694,469,460,463
99695,464,461,463
99696,463,462,461
99697,464,461,462
99698,466,460,462
99699,467,462,462
99700,471,460,462
99701,472,461,459
99702,476,461,463
99703,479,460,463
99704,482,462,462
99705,488,460,464
99706,490,460,462
99707,495,461,462
99708,498,459,462
99709,498,461,459
99710,500,462,461
99711,501,461,461
99712,501,461,463
99713,500,459,463
99714,497,461,461
99715,495,460,460
99716,493,463,460
99717,497,461,460
99718,498,461,463
99719,500,461,463
99720,500,462,462
99721,502,461,462
99722,504,461,463
99723,506,460,461
99724,509,460,463
99725,509,460,462
99726,509,460,462
99727,514,462,463
99728,516,460,462
99729,516,461,464
99730,516,460,463
99731,515,460,463
99732,514,461,461
99733,513,460,463
99734,512,460,462
99735,512,460,462
99736,512,460,463
99737,512,461,461
99738,513,462,462
99739,513,461,462
99740,514,458,460
99741,514,461,462
99742,512,461,463
99743,516,462,461
99744,517,461,463
99745,520,460,462
99746,523,461,464
99747,531,461,461
99748,534,460,464
99749,540,460,462
99750,544,459,463
99751,543,460,463
99752,548,460,463
99753,550,456,461
99754,550,460,460
99755,553,460,460
99756,552,461,463
99757,553,461,463
99758,555,462,461
99759,553,460,463
99760,557,461,460
99761,557,459,462
99762,558,461,462
99763,560,459,462
99764,561,461,461
99765,560,459,462
99766,558,462,463
99767,560,462,461
99768,559,460,459
99769,558,461,461
99770,557,462,461
99771,553,461,462
99772,553,461,461
99773,551,460,461
99774,550,460,463
99775,547,462,460
99776,544,461,462
99777,542,460,462
99778,539,461,462
99779,536,462,461
99780,538,460,463
99781,535,460,461
99782,535,462,462
99783,534,461,461
99784,536,461,463
99785,539,460,463
99786,536,459,459
99787,539,460,462
99788,536,460,462
99789,540,460,463
99790,539,460,462
99791,538,461,460
99792,534,461,461
99793,535,460,462
99794,530,459,463
99795,524,460,458
99796,523,462,462
99797,519,458,462
99798,514,461,462
99799,507,459,463
99800,505,460,462
99801,500,461,462
99802,498,461,462
99803,495,461,461
99804,494,462,463
99805,493,461,462
99806,494,461,462
99807,496,462,461
99808,497,460,462
99809,498,462,463
99810,502,461,463
99811,502,460,462
99812,504,461,461
99813,505,459,461
99814,504,461,463
99815,503,462,463
99816,501,461,463
99817,496,458,462
99818,493,460,461
99819,486,462,462
99820,485,461,462
99821,481,462,463
99822,481,461,462
99823,480,462,461
99824,479,461,461
99825,482,462,463
99826,487,461,462
99827,488,461,460
99828,488,461,460
99829,491,460,461
99830,488,460,462
99831,494,461,462
99832,491,462,462
99833,493,459,461
99834,492,461,461
99835,491,461,462
99836,491,461,462
99837,491,460,462
99838,488,460,463
99839,484,461,461
99840,484,460,462
99841,478,461,463
99842,476,461,459
99843,477,460,461
99844,476,460,462
99845,479,460,464
99846,475,461,462
99847,479,461,462
99848,475,461,463
99849,479,462,463
99850,477,461,461
99851,474,462,463
99852,475,458,462
99853,472,461,461
99854,468,460,462
99855,466,462,460
99856,465,458,462
99857,464,461,463
99858,463,462,461
99859,465,458,463
99860,468,463,462
99861,470,460,462
99862,470,461,463
99863,470,459,461
99864,472,461,462
99865,473,461,464
99866,475,460,462
99867,475,458,462
99868,476,461,462
99869,476,461,462
99870,478,461,459
99871,476,462,462
99872,478,461,462
99873,479,462,462
99874,478,461,462
99875,478,460,461
99876,477,459,462
99877,477,462,462
99878,472,462,462
99879,473,461,461
99880,470,461,461
99881,470,461,461
99882,469,461,461
99883,469,462,461
99884,468,462,459
99885,467,462,460
99886,465,461,463
99887,460,462,464
99888,455,462,461
99889,452,462,461
99890,452,462,462
99891,452,459,461
99892,451,461,460
99893,454,461,461
99894,456,461,462
99895,457,462,462
99896,462,462,462
99897,464,461,463
99898,465,462,461
99899,469,460,462
99900,471,460,463
99901,477,460,461
99902,479,460,463
99903,481,461,462
99904,485,459,463
99905,485,462,462
99906,489,461,462
99907,488,461,462
99908,489,461,462
99909,493,462,461
99910,496,461,462
99911,496,461,461
99912,492,460,464
99913,497,460,463
99914,495,461,461
99915,497,462,460
99916,495,460,461
99917,496,461,462
99918,496,461,462
99919,495,461,463
99920,494,461,463
99921,498,462,462
99922,499,462,463
99923,504,461,462
99924,505,460,463
99925,506,460,461
99926,508,460,461
99927,506,460,462
99928,507,461,460
99929,508,461,460
99930,506,461,461
99931,503,460,463
99932,502,461,460
99933,500,462,463
99934,500,459,463
99935,502,460,462
99936,502,459,462
99937,504,460,462
99938,505,460,462
99939,499,461,458
99940,501,461,462
99941,498,460,459
99942,497,460,461
99943,496,461,462
99944,497,461,464
99945,497,462,463
99946,494,462,463
99947,498,462,462
99948,497,461,461
99949,496,461,461
99950,496,461,461
99951,494,462,461
99952,489,461,462
99953,491,458,461
99954,491,461,461
99955,489,460,462
99956,488,459,461
99957,489,460,462
99958,488,461,461
99959,487,461,462
99960,484,461,463
99961,482,460,462
99962,480,459,462
99963,484,460,463
99964,485,461,461
99965,491,462,458
99966,502,461,462
99967,510,460,463
99968,513,461,461
99969,513,460,462
99970,508,461,459
99971,502,462,461
99972,494,460,460
99973,489,462,462
99974,483,461,461
99975,483,461,462
99976,478,462,460
99977,477,460,461
99978,476,462,463
99979,478,460,461
99980,480,459,462
99981,484,461,462
99982,486,462,462
99983,495,461,460
99984,500,460,462
99985,506,460,463
99986,510,462,461
99987,509,459,463
99988,505,462,462
99989,502,458,459
99990,499,460,462
99991,502,462,460
99992,504,460,465
99993,504,461,462
99994,501,461,463
99995,495,461,463
99996,491,460,460
99997,483,457,463
99998,479,460,461
99999,477,460,462
100000,474,459,462
100001,472,461,461
100002,472,461,462
100003,475,459,461
100004,474,462,459
100005,478,460,462
100006,480,461,461
100007,483,460,462
100008,485,461,461
100009,485,460,463
100010,486,460,458
100011,486,461,462
100012,487,461,458
100013,485,461,460
100014,483,461,462
100015,484,461,462
100016,479,461,462
100017,481,460,462
100018,480,461,462
100019,483,462,461
100020,484,460,461
100021,484,461,461
100022,486,460,462
100023,488,461,463
100024,485,460,462
100025,487,461,457
100026,486,461,462
100027,485,462,462
100028,480,462,462
100029,477,459,461
100030,476,460,461
100031,471,461,461
100032,468,459,462
100033,462,460,461
100034,461,461,461
100035,461,461,463
100036,460,461,462
100037,456,461,459
100038,456,462,461
100039,455,458,462
100040,455,459,463
100041,455,461,462
100042,457,461,462
100043,460,462,462
100044,461,461,461
100045,463,462,462
100046,464,461,462
100047,461,461,462
100048,462,462,462
100049,460,457,460
100050,458,459,462
100051,452,462,462
100052,455,462,460
100053,451,460,461
100054,449,460,462
100055,447,461,461
100056,447,462,462
100057,445,460,460
100058,444,459,463
100059,443,461,462
100060,440,462,459
100061,441,462,462
100062,439,461,462
100063,438,460,462
100064,437,461,460
100065,437,461,462
100066,438,462,461
100067,441,461,462
100068,443,462,462
100069,443,460,463
100070,444,461,462
100071,439,462,462
100072,436,462,461
100073,433,461,463
100074,430,460,461
100075,423,462,463
100076,424,461,462
100077,422,461,463
100078,417,462,462
100079,419,460,461
100080,419,462,463
100081,422,462,462
100082,424,460,462
100083,422,460,462
100084,425,461,459
100085,430,460,461
100086,428,462,461
100087,428,462,460
100088,429,460,462
100089,428,461,462
100090,425,461,461
100091,429,457,461
100092,431,461,463
100093,430,461,461
100094,430,460,461
100095,426,462,460
100096,425,460,462
100097,423,460,462
100098,420,461,463
100099,418,459,460
100100,419,461,461
100101,416,462,463
100102,416,460,461
100103,415,462,462
100104,416,462,461
100105,417,457,460
100106,418,461,461
100107,418,461,460
100108,420,461,461
100109,420,458,462
100110,421,459,463
100111,421,461,462
100112,420,461,463
100113,421,461,462
100114,424,461,462
100115,426,462,461
100116,426,461,462
100117,423,461,463
100118,426,462,460
100119,424,461,463
100120,422,463,458
100121,420,460,464
100122,421,462,461
100123,418,461,462
100124,420,461,463
100125,419,458,460
100126,419,459,462
100127,419,461,461
100128,415,461,460
100129,417,460,462
100130,417,458,462
100131,415,462,463
100132,420,462,461
100133,421,462,461
100134,423,460,462
100135,420,461,463
100136,419,460,463
100137,420,462,463
100138,418,461,461
100139,418,460,464
100140,414,461,458
100141,414,460,461
100142,413,462,461
100143,415,461,463
100144,416,462,462
100145,418,458,462
100146,419,460,462
100147,421,460,460
100148,421,461,461
100149,425,459,461
100150,425,462,462
100151,428,459,462
100152,429,459,461
100153,431,461,463
100154,432,462,460
100155,433,460,462
100156,434,461,462
100157,434,462,461
100158,435,461,462
100159,434,461,462
100160,433,462,462
100161,434,462,461
100162,435,460,462
100163,434,461,462
100164,433,459,462
100165,436,461,461
100166,438,458,462
100167,437,461,461
100168,439,461,463
100169,438,462,463
100170,440,461,462
100171,439,461,463
100172,442,460,461
100173,443,461,462
100174,445,461,460
100175,446,461,462
100176,447,459,463
100177,448,461,462
100178,448,460,460
100179,448,461,462
100180,451,462,462
100181,451,461,461
100182,452,459,462
100183,455,461,460
100184,456,462,461
100185,460,462,462
100186,463,460,462
100187,465,462,461
100188,466,461,461
100189,466,460,460
100190,467,460,460
100191,463,460,461
100192,462,460,460
100193,460,463,461
100194,459,457,462
100195,458,461,461
100196,457,462,461
100197,456,462,462
100198,456,461,462
100199,458,460,461
100200,457,460,461
100201,460,462,462
100202,458,460,462
100203,456,457,460
100204,453,460,461
100205,451,462,462
100206,446,461,461
100207,448,460,461
100208,449,460,462
100209,450,462,462
100210,446,460,463
100211,451,462,462
100212,453,460,462
100213,453,460,462
100214,452,461,461
100215,451,460,462
100216,446,459,463
100217,443,461,460
100218,443,461,462
100219,441,462,461
100220,442,462,462
100221,441,459,461
100222,442,460,461
100223,446,459,462
100224,450,460,460
100225,454,460,462
100226,457,461,461
100227,461,461,460
100228,465,460,463
100229,466,460,461
100230,465,458,461
100231,462,459,462
100232,459,462,462
100233,453,462,461
100234,450,460,462
100235,442,460,461
100236,439,462,460
100237,438,462,459
100238,440,460,461
100239,444,461,461
100240,448,458,461
100241,451,461,461
100242,452,459,463
100243,454,462,462
100244,455,460,459
100245,457,461,463
100246,456,460,462
100247,453,462,461
100248,451,462,461
100249,449,461,462
100250,445,461,462
100251,448,459,460
100252,452,461,461
100253,455,461,460
100254,458,461,463
100255,459,460,463
100256,459,461,462
100257,458,461,459
100258,457,462,461
100259,452,460,461
100260,448,460,462
100261,440,459,462
100262,433,460,463
100263,431,461,460
100264,433,460,462
100265,438,461,462
100266,441,458,461
100267,445,461,461
100268,452,461,462
100269,455,458,462
100270,457,460,461
100271,458,462,462
100272,459,457,460
100273,458,460,462
100274,453,461,460
100275,449,461,463
100276,442,461,461
100277,438,462,463
100278,433,461,460
100279,436,460,461
100280,433,460,462
100281,435,461,462
100282,439,460,462
100283,443,461,461
100284,445,460,462
100285,445,461,461
100286,446,458,460
100287,444,461,462
100288,445,460,462
100289,443,460,462
100290,442,460,460
100291,440,457,462
100292,441,460,463
100293,442,461,462
100294,449,461,462
100295,459,462,464
100296,465,460,462
100297,470,461,460
100298,471,459,462
100299,472,459,462
100300,465,461,461
100301,461,461,462
100302,454,461,463
100303,444,461,461
100304,437,460,462
100305,429,460,460
100306,428,460,459
100307,426,460,463
100308,432,460,459
100309,439,461,460
100310,442,462,459
100311,450,462,459
100312,456,459,461
100313,461,462,461
100314,465,460,462
100315,467,460,462
100316,466,461,460
100317,464,459,460
100318,463,461,459
100319,455,461,459
100320,447,461,463
100321,444,463,462
100322,441,461,460
100323,441,462,462
100324,441,462,461
100325,444,460,461
100326,447,460,462
100327,450,462,460
100328,456,460,462
100329,461,460,462
100330,463,460,463
100331,461,460,458
100332,464,461,461
100333,465,461,461
100334,466,460,462
100335,463,461,461
100336,460,460,463
100337,461,461,462
100338,461,461,461
100339,461,460,461
100340,466,460,461
100341,467,461,461
100342,467,462,461
100343,467,461,461
100344,466,461,462
100345,465,461,462
100346,463,459,462
100347,454,461,463
100348,450,460,461
100349,444,460,461
100350,443,462,464
100351,440,461,463
100352,443,460,462
100353,448,462,464
100354,456,461,462
100355,461,459,462
100356,469,462,463
100357,471,461,462
100358,475,458,461
100359,475,460,462
100360,470,460,461
100361,461,460,463
100362,454,461,462
100363,443,461,461
100364,436,460,462
100365,430,459,461
100366,433,462,462
100367,436,461,463
100368,443,462,462
100369,452,460,463
100370,460,457,462
100371,469,460,464
100372,472,460,462
100373,476,460,462
100374,476,461,461
100375,474,461,462
100376,469,459,462
100377,466,462,460
100378,462,460,462
100379,459,460,462
100380,456,459,461
100381,453,461,461
100382,450,458,463
100383,447,460,462
100384,450,460,460
100385,451,462,459
100386,459,462,460
100387,465,460,463
100388,470,462,461
100389,471,461,463
100390,473,462,461
100391,470,460,462
100392,466,461,458
100393,462,460,462
100394,457,460,463
100395,450,461,462
100396,443,461,462
100397,446,460,463
100398,449,460,459
100399,460,461,461
100400,471,459,462
100401,479,460,460
100402,486,460,462
100403,492,461,463
100404,492,460,460
100405,487,460,458
100406,480,459,462
100407,471,459,462
100408,460,459,462
100409,450,462,460
100410,441,460,462
100411,437,460,462
100412,435,461,463
100413,437,463,459
100414,443,459,462
100415,449,461,460
100416,454,460,459
100417,460,460,463
100418,466,460,462
100419,471,462,462
100420,473,461,462
100421,475,461,463
100422,472,461,461
100423,468,461,460
100424,462,462,459
100425,457,459,459
100426,451,461,460
100427,442,461,462
100428,437,459,461
100429,436,460,463
100430,443,461,461
100431,452,459,462
100432,460,461,463
100433,469,460,462
100434,481,462,462
100435,491,461,461
100436,495,460,462
100437,493,460,463
100438,487,459,462
100439,477,460,462
100440,466,461,461
100441,450,461,461
100442,444,461,460
100443,438,461,462
100444,436,460,463
100445,437,460,462
100446,441,460,461
100447,445,462,463
100448,455,461,461
100449,461,459,462
100450,468,461,462
100451,471,461,461
100452,468,460,459
100453,466,461,461
100454,461,460,461
100455,453,461,462
100456,447,461,462
100457,441,460,462
100458,436,460,463
100459,431,461,462
100460,434,462,461
100461,434,460,459
100462,438,461,462
100463,446,461,459
100464,460,461,459
100465,473,459,462
100466,486,460,463
100467,494,461,462
100468,499,460,463
100469,502,460,462
100470,495,460,463
100471,485,461,462
100472,472,460,462
100473,459,460,462
100474,454,461,461
100475,448,462,461
100476,443,459,461
100477,443,461,462
100478,442,461,460
100479,449,462,462
100480,451,461,461
100481,456,460,461
100482,458,462,462
100483,460,461,461
100484,457,458,463
100485,455,460,461
100486,457,458,461
100487,452,461,463
100488,454,462,463
100489,452,461,463
100490,448,461,462
100491,449,459,462
100492,448,460,462
100493,448,463,461
100494,450,461,461
100495,455,462,463
100496,462,457,461
100497,467,457,460
100498,472,461,462
100499,473,460,461
100500,474,461,462
100501,470,462,462
100502,465,462,461
100503,459,462,460
100504,454,461,461
100505,450,461,459
100506,453,462,459
100507,455,460,462
100508,459,461,463
100509,466,461,461
100510,469,461,461
100511,470,462,462
100512,469,460,462
100513,466,461,461
100514,454,460,458
100515,449,461,461
100516,449,461,461
100517,444,462,463
100518,446,461,463
100519,445,462,462
100520,452,459,461
100521,457,461,461
100522,463,461,462
100523,469,460,462
100524,475,459,461
100525,477,461,460
100526,478,460,463
100527,477,461,463
100528,475,461,463
100529,470,460,460
100530,465,461,462
100531,457,461,461
100532,447,461,461
100533,446,460,462
100534,440,461,462
100535,443,461,461
100536,444,461,462
100537,443,460,461
100538,444,461,461
100539,444,460,463
100540,445,460,462
100541,444,462,463
100542,449,462,461
100543,448,460,463
100544,449,460,461
100545,453,458,462
100546,456,462,462
100547,460,460,461
100548,463,458,461
100549,463,461,461
100550,463,462,462
100551,461,461,461
100552,456,461,462
100553,454,461,463
100554,451,459,461
100555,447,458,462
100556,444,460,462
100557,444,460,462
100558,440,460,463
100559,437,461,463
100560,432,461,463
100561,426,458,461
100562,423,460,461
100563,421,460,463
100564,421,461,463
100565,417,462,462
100566,414,460,461
100567,412,461,462
100568,407,460,459
100569,411,460,462
100570,413,460,462
100571,414,461,462
100572,415,462,461
100573,415,461,460
100574,417,457,460
100575,416,462,462
100576,416,461,461
100577,421,460,460
100578,424,461,463
100579,427,459,462
100580,420,462,462
100581,412,460,460
100582,408,459,462
100583,400,457,462
100584,392,461,462
100585,385,461,461
100586,381,462,463
100587,376,460,463
100588,375,462,461
100589,376,459,462
100590,379,461,462
100591,382,460,462
100592,385,458,462
100593,387,460,462
100594,386,461,461
100595,387,461,464
100596,388,462,462
100597,387,461,462
100598,390,461,462
100599,394,461,462
100600,393,461,460
100601,393,459,462
100602,391,462,461
100603,390,459,461
100604,390,460,462
100605,391,460,461
100606,392,461,463
100607,399,461,462
100608,398,462,460
100609,396,461,463
100610,394,461,462
100611,399,461,462
100612,402,462,461
100613,401,461,462
100614,401,462,461
100615,399,460,461
100616,397,461,460
100617,394,461,461
100618,391,460,460
100619,383,461,462
100620,380,460,462
100621,374,460,462
