Time (ms),Bicep,Shoulder,Tricep
410272,464,457,460
410273,464,461,461
410274,462,461,462
410275,460,461,460
410276,457,460,461
410277,456,459,461
410278,454,460,462
410279,454,460,460
410280,452,461,461
410281,454,459,462
410282,455,457,462
410283,456,459,462
410284,457,461,462
410285,461,460,462
410286,462,462,461
410287,463,460,461
410288,465,459,461
410289,468,461,462
410290,467,462,462
410291,466,461,462
410292,465,460,460
410293,465,461,462
410294,463,460,460
410295,460,460,461
410296,459,460,462
410297,457,460,461
410298,455,462,462
410299,454,460,461
410300,454,460,461
410301,455,461,461
410302,455,460,460
410303,455,460,461
410304,459,461,462
410305,460,461,461
410306,460,461,462
410307,465,460,462
410308,466,461,462
410309,467,461,461
410310,468,459,462
410311,468,459,462
410312,465,459,462
410313,464,460,461
410314,463,460,461
410315,459,460,460
410316,456,459,458
410317,452,460,462
410318,454,459,462
410319,454,461,463
410320,453,460,460
410321,452,459,462
410322,454,459,461
410323,454,458,460
410324,458,460,462
410325,458,461,462
410326,462,460,461
410327,464,460,461
410328,465,459,461
410329,467,460,462
410330,466,460,461
410331,466,460,462
410332,464,459,459
410333,466,460,461
410334,466,459,462
410335,464,460,462
410336,462,460,460
410337,461,460,462
410338,459,460,461
410339,460,458,461
410340,457,458,461
410341,458,460,461
410342,458,460,463
410343,460,459,462
410344,460,456,460
410345,464,460,462
410346,462,458,462
410347,464,460,460
410348,465,461,461
410349,466,461,462
410350,466,460,461
410351,468,459,462
410352,465,460,462
410353,462,459,462
410354,458,462,462
410355,459,461,461
410356,456,462,463
410357,452,460,462
410358,453,460,462
410359,452,459,462
410360,450,460,462
410361,451,459,462
410362,451,460,461
410363,455,457,460
410364,455,459,462
410365,459,458,460
410366,462,458,462
410367,463,460,460
410368,465,459,462
410369,468,461,463
410370,468,459,462
410371,468,460,459
410372,467,458,461
410373,467,460,462
410374,467,461,462
410375,463,460,462
410376,461,461,461
410377,461,460,462
410378,457,462,461
410379,457,461,461
410380,455,461,458
410381,456,459,462
410382,456,460,461
410383,457,459,461
410384,458,459,462
410385,459,458,461
410386,460,460,460
410387,461,460,460
410388,459,460,459
410389,462,459,461
410390,461,461,461
410391,459,461,463
410392,461,461,461
410393,459,461,457
410394,458,459,461
410395,454,459,461
410396,452,461,460
410397,452,460,461
410398,450,460,462
410399,450,461,461
410400,451,457,461
410401,452,459,462
410402,452,461,462
410403,453,460,463
410404,455,460,462
410405,459,460,461
410406,459,460,460
410407,464,460,461
410408,464,459,462
410409,467,460,462
410410,468,461,459
410411,466,461,462
410412,466,461,459
410413,465,462,460
410414,466,461,461
410415,466,461,460
410416,463,461,460
410417,458,461,460
410418,459,461,461
410419,456,462,462
410420,456,460,461
410421,455,459,463
410422,458,460,462
410423,457,459,462
410424,457,458,461
410425,461,460,461
410426,463,461,460
410427,463,460,462
410428,468,462,462
410429,466,460,459
410430,469,462,461
410431,469,460,461
410432,469,460,461
410433,467,461,459
410434,466,461,460
410435,465,460,461
410436,464,461,459
410437,462,461,459
410438,458,460,462
410439,458,461,462
410440,459,461,462
410441,458,460,459
410442,459,462,461
410443,459,460,462
410444,461,461,461
410445,466,459,462
410446,469,460,461
410447,469,461,462
410448,473,459,463
410449,473,461,461
410450,474,462,461
410451,473,461,461
410452,471,461,460
410453,468,457,462
410454,464,458,461
410455,459,460,462
410456,453,462,461
410457,452,461,462
410458,450,460,460
410459,449,461,462
410460,448,460,462
410461,448,462,461
410462,449,460,460
410463,449,461,459
410464,453,460,461
410465,456,461,460
410466,459,461,460
410467,460,461,459
410468,460,460,461
410469,461,460,461
410470,461,458,460
410471,461,460,460
410472,462,460,462
410473,458,461,461
410474,457,461,460
410475,455,461,461
410476,453,460,460
410477,451,461,462
410478,450,460,461
410479,447,460,461
410480,445,460,462
410481,445,461,460
410482,444,459,461
410483,443,461,461
410484,445,459,461
410485,447,459,461
410486,446,460,462
410487,450,459,461
410488,452,460,463
410489,452,460,461
410490,455,459,462
410491,457,461,462
410492,458,458,460
410493,457,459,461
410494,457,458,462
410495,455,459,462
410496,454,460,461
410497,453,459,461
410498,452,458,462
410499,451,461,462
410500,451,461,460
410501,450,461,460
410502,452,460,462
410503,452,461,460
410504,453,460,462
410505,456,459,461
410506,458,459,460
410507,461,459,462
410508,464,460,460
410509,469,458,461
410510,471,460,461
410511,471,461,462
410512,475,461,461
410513,473,459,461
410514,472,460,461
410515,469,459,461
410516,465,460,461
410517,460,459,461
410518,457,460,462
410519,454,461,461
410520,452,460,459
410521,453,460,461
410522,454,460,460
410523,456,462,463
410524,458,461,461
410525,460,459,460
410526,462,458,461
410527,464,458,462
410528,464,459,461
410529,468,460,463
410530,467,460,461
410531,470,461,459
410532,472,458,460
410533,473,460,461
410534,472,461,461
410535,472,460,461
410536,473,459,462
410537,473,459,462
410538,468,460,461
410539,470,460,462
410540,470,460,460
410541,468,460,462
410542,468,461,461
410543,464,461,459
410544,464,459,461
410545,462,460,461
410546,463,460,462
410547,465,460,462
410548,463,460,457
410549,468,460,460
410550,470,459,460
410551,474,461,460
410552,473,461,461
410553,474,461,462
410554,471,461,459
410555,472,460,458
410556,471,460,461
410557,469,460,461
410558,464,459,462
410559,461,459,461
410560,456,459,461
410561,453,460,460
410562,453,461,460
410563,455,461,462
410564,456,458,461
410565,457,460,460
410566,460,460,461
410567,465,461,462
410568,472,460,462
410569,477,460,460
410570,480,460,460
410571,482,460,459
410572,481,462,458
410573,481,460,459
410574,478,460,461
410575,475,460,460
410576,467,461,462
410577,463,461,461
410578,458,461,459
410579,453,460,461
410580,451,461,459
410581,451,460,462
410582,452,460,461
410583,454,461,461
410584,455,460,460
410585,457,461,460
410586,458,461,461
410587,458,461,462
410588,458,463,460
410589,458,461,461
410590,459,462,462
410591,460,460,462
410592,460,459,462
410593,459,460,462
410594,457,460,462
410595,456,457,462
410596,458,460,461
410597,457,461,462
410598,455,460,457
410599,455,459,460
410600,455,460,462
410601,455,461,461
410602,458,459,462
410603,459,461,462
410604,459,461,462
410605,460,459,460
410606,461,461,462
410607,461,460,461
410608,463,459,461
410609,464,460,461
410610,467,460,461
410611,466,459,463
410612,464,457,461
410613,463,461,461
410614,462,461,462
410615,462,460,461
410616,463,460,462
410617,465,460,461
410618,465,460,460
410619,468,458,460
410620,468,457,461
410621,468,460,461
410622,471,458,460
410623,473,460,460
410624,473,461,461
410625,474,461,463
410626,475,461,461
410627,473,460,461
410628,470,460,462
410629,471,459,462
410630,472,460,461
410631,474,461,461
410632,473,460,461
410633,474,460,462
410634,474,459,461
410635,472,459,462
410636,472,461,459
410637,474,458,461
410638,474,463,462
410639,472,461,461
410640,472,460,461
410641,471,459,461
410642,472,459,462
410643,472,461,463
410644,466,461,460
410645,465,461,459
410646,462,461,460
410647,465,461,461
410648,464,460,461
410649,467,461,461
410650,471,458,462
410651,476,459,462
410652,487,460,461
410653,493,459,462
410654,494,459,462
410655,497,459,461
410656,493,460,462
410657,490,461,461
410658,486,461,462
410659,484,458,461
410660,479,460,462
410661,476,461,462
410662,470,462,460
410663,470,461,461
410664,470,457,461
410665,469,458,461
410666,472,460,461
410667,473,458,462
410668,477,458,463
410669,481,461,461
410670,483,460,460
410671,484,461,462
410672,485,461,461
410673,484,461,462
410674,481,459,460
410675,478,460,462
410676,473,461,460
410677,467,460,461
410678,461,460,461
410679,458,461,462
410680,455,460,460
410681,454,461,462
410682,454,460,460
410683,455,459,461
410684,460,460,461
410685,466,459,461
410686,475,459,461
410687,480,458,461
410688,484,460,460
410689,485,460,463
410690,489,460,461
410691,487,461,461
410692,483,460,459
410693,477,459,459
410694,474,460,462
410695,467,460,461
410696,462,461,462
410697,458,461,461
410698,457,460,461
410699,452,457,461
410700,453,460,461
410701,458,462,461
410702,462,460,461
410703,467,460,461
410704,471,461,463
410705,476,460,462
410706,479,459,461
410707,480,459,461
410708,480,460,462
410709,476,460,461
410710,475,460,461
410711,471,460,460
410712,470,459,462
410713,467,461,461
410714,465,460,462
410715,462,460,459
410716,460,459,461
410717,456,459,462
410718,454,460,462
410719,456,460,460
410720,462,459,461
410721,464,460,461
410722,468,461,461
410723,469,461,461
410724,468,461,461
410725,472,458,461
410726,473,461,462
410727,474,461,462
410728,473,460,463
410729,469,460,462
410730,464,460,461
410731,461,459,460
410732,460,461,461
410733,464,462,461
410734,464,460,461
410735,463,462,461
410736,467,461,461
410737,470,461,459
410738,471,460,460
410739,471,461,459
410740,469,460,461
410741,466,460,460
410742,464,459,459
410743,463,460,462
410744,465,460,462
410745,465,460,462
410746,465,460,462
410747,464,460,460
410748,463,460,461
410749,462,461,460
410750,463,459,462
410751,461,459,461
410752,457,460,460
410753,453,459,462
410754,448,460,462
410755,446,460,460
410756,441,460,462
410757,439,460,461
410758,440,460,462
410759,439,460,462
410760,440,461,462
410761,443,459,461
410762,444,461,461
410763,450,459,461
410764,454,460,461
410765,458,461,462
410766,459,461,459
410767,461,461,459
410768,462,461,461
410769,459,459,462
410770,456,460,460
410771,452,460,462
410772,451,461,459
410773,455,460,460
410774,455,461,459
410775,455,461,461
410776,455,460,462
410777,450,460,461
410778,451,460,459
410779,447,459,461
410780,444,460,458
410781,445,460,462
410782,444,460,461
410783,443,459,460
410784,442,461,461
410785,445,461,460
410786,447,461,460
410787,449,460,461
410788,454,457,462
410789,455,460,463
410790,457,460,462
410791,455,460,462
410792,454,460,462
410793,453,461,462
410794,452,460,463
410795,448,459,461
410796,444,460,462
410797,442,460,462
410798,439,460,462
410799,444,461,461
410800,446,458,461
410801,452,459,461
410802,455,461,461
410803,457,461,462
410804,460,459,461
410805,457,461,462
410806,457,460,458
410807,455,459,460
410808,453,460,462
410809,455,461,460
410810,457,460,463
410811,460,458,462
410812,464,460,462
410813,468,459,461
410814,469,458,462
410815,468,459,461
410816,464,460,462
410817,458,460,461
410818,455,458,461
410819,454,460,463
410820,454,459,462
410821,451,460,461
410822,450,460,461
410823,450,460,462
410824,453,460,462
410825,457,461,461
410826,461,459,459
410827,464,459,459
410828,464,458,461
410829,466,461,461
410830,468,457,461
410831,470,460,461
410832,474,460,460
410833,471,461,461
410834,467,459,462
410835,462,461,461
410836,456,460,461
410837,447,461,461
410838,447,461,462
410839,448,460,458
410840,451,459,461
410841,454,460,462
410842,458,461,460
410843,463,461,461
410844,470,461,461
410845,472,460,460
410846,476,460,461
410847,483,460,461
410848,487,460,462
410849,483,460,461
410850,480,461,460
410851,475,461,459
410852,470,461,460
410853,468,460,460
410854,467,461,459
410855,465,461,460
410856,466,461,462
410857,467,461,461
410858,466,460,461
410859,466,460,462
410860,467,460,462
410861,469,459,461
410862,473,459,462
410863,475,460,461
410864,476,461,462
410865,480,460,461
410866,482,460,461
410867,483,458,462
410868,484,459,460
410869,486,459,461
410870,487,460,460
410871,489,459,463
410872,489,459,462
410873,486,460,461
410874,485,459,461
410875,486,460,461
410876,477,461,461
410877,475,462,462
410878,475,460,461
410879,469,460,460
410880,468,460,461
410881,463,459,460
410882,461,461,461
410883,456,460,462
410884,456,460,462
410885,461,461,461
410886,464,460,462
410887,470,460,461
410888,470,461,459
410889,470,460,461
410890,470,461,460
410891,467,461,461
410892,469,461,460
410893,472,461,461
410894,470,461,461
410895,468,460,462
410896,464,461,462
410897,462,458,461
410898,462,460,462
410899,462,461,461
410900,461,459,462
410901,459,457,461
410902,457,460,459
410903,457,458,461
410904,455,460,461
410905,458,461,461
410906,460,460,460
410907,462,459,458
410908,466,461,462
410909,469,462,460
410910,469,460,461
410911,466,460,461
410912,465,462,462
410913,460,461,462
410914,453,461,461
410915,450,458,460
410916,449,460,460
410917,448,460,462
410918,446,460,462
410919,444,461,461
410920,447,461,460
410921,445,462,461
410922,446,461,460
410923,450,461,461
410924,452,460,460
410925,458,460,461
410926,463,458,463
410927,466,460,461
410928,465,457,460
410929,465,460,461
410930,466,460,461
410931,466,458,462
410932,466,458,461
410933,463,460,462
410934,457,461,461
410935,453,460,461
410936,450,459,462
410937,444,460,460
410938,443,460,461
410939,442,461,461
410940,444,459,461
410941,446,460,461
410942,449,461,462
410943,455,461,461
410944,461,461,459
410945,464,459,461
410946,465,460,460
410947,467,460,462
410948,469,459,462
410949,469,459,462
410950,467,460,461
410951,462,460,461
410952,455,462,462
410953,453,459,462
410954,451,459,461
410955,449,460,461
410956,446,461,461
410957,445,461,461
410958,440,459,460
410959,437,459,461
410960,436,458,460
410961,435,460,460
410962,437,461,460
410963,439,461,461
410964,442,460,462
410965,448,461,462
410966,452,458,461
410967,453,459,460
410968,449,461,459
410969,447,460,461
410970,452,460,460
410971,458,458,460
410972,462,458,461
410973,459,460,462
410974,457,460,460
410975,452,459,463
410976,446,459,461
410977,444,460,455
410978,441,461,462
410979,440,461,461
410980,443,461,461
410981,446,460,460
410982,445,461,461
410983,443,459,461
410984,444,460,460
410985,445,461,461
410986,449,460,461
410987,445,460,462
410988,444,460,462
410989,441,460,462
410990,437,461,459
410991,438,460,459
410992,438,457,459
410993,437,460,461
410994,437,461,462
410995,439,462,460
410996,443,460,461
410997,448,459,461
410998,451,461,462
410999,452,460,461
411000,450,459,461
411001,443,458,460
411002,437,462,461
411003,437,459,460
411004,439,457,462
411005,442,460,462
411006,442,460,462
411007,441,460,461
411008,443,461,461
411009,442,462,461
411010,444,461,461
411011,447,462,461
411012,449,462,460
411013,450,461,460
411014,450,461,459
411015,448,461,458
411016,447,460,461
411017,443,460,462
411018,445,462,462
411019,444,462,461
411020,445,460,462
411021,448,460,461
411022,445,461,461
411023,444,461,462
411024,444,462,462
411025,443,460,462
411026,441,460,458
411027,440,460,459
411028,443,460,462
411029,444,460,461
411030,445,460,461
411031,448,459,462
411032,449,459,462
411033,446,460,463
411034,446,460,461
411035,439,460,462
411036,436,460,458
411037,435,460,460
411038,434,460,459
411039,434,461,462
411040,436,458,461
411041,436,460,461
411042,439,458,462
411043,443,457,460
411044,448,461,461
411045,452,461,462
411046,455,461,462
411047,452,459,461
411048,464,461,461
411049,466,459,462
411050,468,460,461
411051,471,461,461
411052,470,460,461
411053,468,460,462
411054,463,462,462
411055,456,460,461
411056,450,458,460
411057,446,459,459
411058,441,460,462
411059,439,460,461
411060,438,460,462
411061,435,459,461
411062,435,459,461
411063,433,459,461
411064,437,461,460
411065,440,463,458
411066,440,460,463
411067,445,460,461
411068,445,459,462
411069,445,461,461
411070,443,459,461
411071,444,460,461
411072,442,460,461
411073,441,459,461
411074,442,460,462
411075,443,461,461
411076,444,461,458
411077,442,462,462
411078,446,460,461
411079,446,461,460
411080,448,462,463
411081,450,460,462
411082,453,459,462
411083,456,461,460
411084,455,459,464
411085,459,460,462
411086,457,460,462
411087,454,461,459
411088,454,461,460
411089,450,459,459
411090,450,457,461
411091,447,459,463
411092,440,458,461
411093,433,459,462
411094,429,460,461
411095,425,461,461
411096,424,461,460
411097,418,461,460
411098,417,459,458
411099,420,462,462
411100,425,460,460
411101,429,460,461
411102,434,460,459
411103,438,461,461
411104,436,461,461
411105,438,461,462
411106,438,461,462
411107,436,461,460
411108,430,458,462
411109,425,461,461
411110,420,459,462
411111,417,462,462
411112,415,460,462
411113,414,461,460
411114,419,460,461
411115,421,459,460
411116,424,461,462
411117,432,458,462
411118,436,460,460
411119,439,461,463
411120,443,460,462
411121,449,461,462
411122,451,460,462
411123,451,459,462
411124,450,459,462
411125,447,460,462
411126,444,461,462
411127,439,460,463
411128,437,461,461
411129,434,461,461
411130,432,459,463
411131,429,461,463
411132,428,461,461
411133,430,461,460
411134,429,460,462
411135,430,460,460
411136,429,460,461
411137,433,459,461
411138,435,460,462
411139,436,458,462
411140,436,459,461
411141,440,461,462
411142,445,461,461
411143,449,457,462
411144,454,460,462
411145,459,459,462
411146,461,459,461
411147,462,459,461
411148,462,461,461
411149,456,459,459
411150,450,458,462
411151,446,461,461
411152,441,461,463
411153,438,460,462
411154,434,456,462
411155,431,462,461
411156,431,459,462
411157,430,460,461
411158,428,460,461
411159,430,460,462
411160,429,459,461
411161,431,459,460
411162,429,460,460
411163,430,460,461
411164,432,460,462
411165,434,461,462
411166,436,457,461
411167,437,461,461
411168,436,460,461
411169,435,458,462
411170,434,460,462
411171,431,458,462
411172,429,459,461
411173,430,460,460
411174,428,458,462
411175,428,460,460
411176,426,461,462
411177,426,459,462
411178,423,458,462
411179,427,460,462
411180,427,456,461
411181,428,460,461
411182,430,459,462
411183,433,460,461
411184,433,460,462
411185,437,459,462
411186,441,460,462
411187,443,458,462
411188,442,460,463
411189,439,462,462
411190,441,459,461
411191,444,460,462
411192,448,461,462
411193,453,460,461
411194,456,458,462
411195,458,460,461
411196,462,460,463
411197,462,460,463
411198,462,460,461
411199,464,459,462
411200,465,460,462
411201,468,460,462
411202,472,460,462
411203,473,459,460
411204,480,460,461
411205,482,461,459
411206,487,459,460
411207,490,459,461
411208,495,459,460
411209,495,459,463
411210,496,457,461
411211,490,461,462
411212,486,460,462
411213,479,459,460
411214,475,459,460
411215,472,460,460
411216,476,460,462
411217,478,461,462
411218,481,461,460
411219,483,459,463
411220,485,458,461
411221,486,459,461
411222,487,460,461
411223,489,460,462
411224,493,460,462
411225,498,461,460
411226,507,460,460
411227,512,463,463
411228,518,460,462
411229,524,459,461
411230,524,460,462
411231,525,459,462
411232,524,461,461
411233,517,460,463
411234,513,461,460
411235,508,460,461
411236,499,462,461
411237,492,460,462
411238,494,460,461
411239,494,459,461
411240,497,461,461
411241,499,460,463
411242,500,460,462
411243,499,461,459
411244,501,459,463
411245,500,461,462
411246,494,461,461
411247,490,460,462
411248,484,460,462
411249,479,460,462
411250,474,461,461
411251,471,461,462
411252,473,459,462
411253,477,460,463
411254,477,460,463
411255,481,461,461
411256,487,460,462
411257,491,455,461
411258,493,458,463
411259,494,460,463
411260,494,460,461
411261,493,460,463
411262,493,462,463
411263,499,459,462
411264,499,460,462
411265,498,461,462
411266,497,461,462
411267,496,459,459
411268,496,461,461
411269,496,461,463
411270,495,461,462
411271,494,460,461
411272,491,457,461
411273,489,461,461
411274,485,461,460
411275,480,460,462
411276,480,461,462
411277,481,459,463
411278,480,458,463
411279,480,459,461
411280,481,459,462
411281,481,459,461
411282,481,458,462
411283,483,459,462
411284,485,460,461
411285,487,459,462
411286,486,460,463
411287,486,460,462
411288,488,460,462
411289,489,459,462
411290,494,460,461
411291,497,460,461
411292,499,461,462
411293,498,460,462
411294,498,460,463
411295,498,460,463
411296,500,460,462
411297,499,460,460
411298,498,461,461
411299,500,459,462
411300,502,460,462
411301,502,460,461
411302,504,460,461
411303,505,461,461
411304,508,462,460
411305,512,460,461
411306,514,461,461
411307,514,461,459
411308,518,460,460
411309,519,461,461
411310,520,461,460
411311,519,461,462
411312,519,462,461
411313,518,462,462
411314,516,459,461
411315,516,460,462
411316,514,460,462
411317,511,460,462
411318,510,462,460
411319,511,461,462
411320,510,461,462
411321,511,458,461
411322,512,461,460
411323,511,460,461
411324,513,460,462
411325,514,460,462
411326,517,461,461
411327,517,460,461
411328,518,462,462
411329,518,460,461
411330,517,463,462
411331,516,460,462
411332,512,461,461
411333,512,460,461
411334,508,461,462
411335,503,460,463
411336,501,461,461
411337,499,460,462
411338,497,461,464
411339,495,461,462
411340,493,460,462
411341,491,460,461
411342,490,459,461
411343,490,461,462
411344,487,461,461
411345,486,457,463
411346,484,461,462
411347,482,458,462
411348,481,456,463
411349,480,458,462
411350,480,461,460
411351,476,458,461
411352,473,461,461
411353,471,461,461
411354,468,459,462
411355,465,460,461
411356,462,459,460
411357,459,461,459
411358,459,460,462
411359,456,461,461
411360,455,460,462
411361,455,460,461
411362,454,460,460
411363,454,459,461
411364,455,459,462
411365,457,461,462
411366,456,460,460
411367,456,457,462
411368,455,460,462
411369,455,460,462
411370,455,461,463
411371,452,460,459
411372,454,460,462
411373,450,459,461
411374,445,460,462
411375,443,460,462
411376,440,460,460
411377,436,458,462
411378,434,461,461
411379,432,460,464
411380,431,460,461
411381,433,460,462
411382,434,459,462
411383,432,458,461
411384,435,460,461
411385,432,460,461
411386,434,459,462
411387,434,459,461
411388,435,461,459
411389,436,462,462
411390,438,461,462
411391,439,460,461
411392,439,460,461
411393,435,460,460
411394,436,461,459
411395,434,459,461
411396,431,459,462
411397,429,462,461
411398,427,459,462
411399,424,460,462
411400,424,460,461
411401,430,460,461
411402,431,460,460
411403,434,461,461
411404,437,459,460
411405,439,460,461
411406,439,461,461
411407,441,461,461
411408,443,461,462
411409,444,459,462
411410,439,459,460
411411,438,461,460
411412,434,460,459
411413,434,460,459
411414,429,460,461
411415,431,460,460
411416,430,460,462
411417,429,459,462
411418,431,460,463
411419,433,460,461
411420,433,460,460
411421,435,460,460
411422,440,461,460
411423,441,460,461
411424,447,460,461
411425,448,460,461
411426,454,461,462
411427,458,459,461
411428,465,459,462
411429,463,460,462
411430,463,461,462
411431,461,458,459
411432,461,460,461
411433,463,460,463
411434,460,458,460
411435,461,460,461
411436,458,461,461
411437,456,462,460
411438,454,460,462
411439,448,460,462
411440,446,459,461
411441,446,461,459
411442,449,460,462
411443,452,461,460
411444,458,459,462
411445,460,460,459
411446,466,460,460
411447,469,461,462
411448,470,460,462
411449,471,461,461
411450,473,460,462
411451,474,459,461
411452,471,460,461
411453,470,461,462
411454,468,461,461
411455,464,458,461
411456,462,459,460
411457,461,460,462
411458,459,460,461
411459,456,459,458
411460,452,461,459
411461,453,460,459
411462,450,457,462
411463,448,459,461
411464,448,461,462
411465,447,457,461
411466,450,460,461
411467,451,460,461
411468,451,460,461
411469,449,458,461
411470,446,460,462
411471,442,459,461
411472,440,461,462
411473,441,461,461
411474,440,460,463
411475,438,460,462
411476,441,460,462
411477,441,461,462
411478,442,459,462
411479,443,460,462
411480,443,458,462
411481,444,459,462
411482,444,457,460
411483,447,460,461
411484,450,460,462
411485,454,458,461
411486,457,459,461
411487,459,461,460
411488,459,461,461
411489,461,462,460
411490,462,459,460
411491,460,459,460
411492,457,459,460
411493,454,461,460
411494,449,460,461
411495,445,460,461
411496,437,461,460
411497,434,460,462
411498,434,460,461
411499,433,459,458
411500,434,462,462
411501,437,460,461
411502,440,462,460
411503,438,461,461
411504,439,460,462
411505,436,459,463
411506,437,459,461
411507,444,460,462
411508,445,460,462
411509,451,459,462
411510,456,461,461
411511,455,461,462
411512,456,460,461
411513,457,459,463
411514,455,459,462
411515,453,460,462
411516,452,461,462
411517,447,461,461
411518,445,460,461
411519,440,459,462
411520,438,460,461
411521,439,460,462
411522,439,459,462
411524,445,460,463
411525,447,460,461
411526,446,458,462
411527,446,460,462
411528,447,460,462
411529,447,460,462
411529,448,459,462
411530,446,460,462
411531,448,460,462
411532,445,459,462
411533,445,457,461
411534,446,461,463
411535,444,460,460
411536,445,460,462
411537,447,461,462
411538,448,458,461
411539,449,460,459
411540,453,460,460
411541,455,461,460
411542,457,461,459
411543,458,461,462
411544,459,462,461
411545,460,458,463
411546,461,458,462
411547,463,460,461
411548,462,461,461
411549,470,457,461
411550,474,457,461
411551,476,460,461
411552,475,460,461
411553,473,460,461
411554,471,460,460
411555,469,460,461
411556,468,458,461
411557,468,458,461
411558,467,460,462
411559,466,460,463
411560,466,459,461
411561,465,458,460
411562,471,461,462
411563,469,460,461
411564,474,460,461
411565,476,460,464
411566,477,459,462
411567,478,460,459
411568,480,459,461
411569,483,461,461
411570,483,460,462
411571,484,460,461
411572,483,459,462
411573,476,461,462
411574,470,460,462
411575,471,460,461
411576,472,462,461
411577,474,462,462
411578,478,461,460
411579,484,461,462
411580,487,461,458
411581,491,460,462
411582,494,459,461
411583,497,460,462
411584,499,460,461
411585,501,462,461
411586,505,461,460
411587,509,460,460
411588,512,460,460
411589,516,459,462
411590,519,460,461
411591,519,462,460
411592,519,460,462
411593,519,460,460
411594,517,458,461
411595,515,460,459
411596,512,461,459
411597,515,459,461
411598,518,460,462
411599,522,460,461
411600,526,461,461
411601,532,461,462
411602,540,459,461
411603,544,460,462
411604,544,460,461
411605,546,458,461
411606,546,459,460
411607,547,460,462
411608,549,461,461
411609,551,461,458
411610,556,459,462
411611,555,461,461
411612,557,461,461
411613,554,457,461
411614,549,460,458
411615,543,461,461
411616,538,457,461
411617,534,461,462
411618,528,460,459
411619,529,461,461
411620,526,459,460
411621,527,459,461
411622,527,461,461
411623,528,460,461
411624,529,458,461
411625,530,460,461
411626,529,460,462
411627,523,461,461
411628,524,460,461
411629,519,461,460
411630,509,461,462
411631,499,460,463
411632,487,461,461
411633,477,461,460
411634,473,459,462
411635,472,460,461
411636,474,457,460
411637,475,460,461
411638,475,458,461
411639,478,458,461
411640,480,461,461
411641,484,461,462
411642,486,460,461
411643,486,460,461
411644,491,460,460
411645,492,461,459
411646,494,460,457
411647,495,460,462
411648,501,462,460
411649,506,459,461
411650,508,460,461
411651,508,458,460
411652,510,461,462
411653,506,462,461
411654,504,459,462
411655,504,461,460
411656,499,460,460
411657,502,461,461
411658,500,460,461
411659,496,460,461
411660,495,460,460
411661,494,457,460
411662,491,460,460
411663,489,460,460
411664,478,461,461
411665,478,462,463
411666,474,460,462
411667,473,460,461
411668,475,461,461
411669,476,461,458
411670,482,458,461
411671,486,461,460
411672,485,460,461
411673,484,459,459
411674,484,460,462
411675,484,460,462
411676,487,456,461
411677,491,459,461
411678,492,460,461
411679,496,458,462
411680,499,460,461
411681,500,460,461
411682,501,462,462
411683,500,461,462
411684,500,461,460
411685,503,460,461
411686,502,461,461
411687,503,459,460
411688,497,461,462
411689,492,459,462
411690,483,461,459
411691,476,462,459
411692,472,460,461
411693,466,461,460
411694,466,461,462
411695,465,460,462
411696,464,460,460
411697,462,460,461
411698,459,458,461
411699,454,460,461
411700,452,460,460
411701,452,460,460
411702,446,458,462
411703,446,460,461
411704,443,459,462
411705,442,460,462
411706,443,461,461
411707,444,462,460
411708,448,463,461
411709,453,460,459
411710,460,460,460
411711,459,460,461
411712,464,462,461
411713,463,459,461
411714,464,457,462
411715,461,459,461
411716,459,460,460
411717,459,461,462
411718,460,466,461
411719,461,460,461
411720,464,461,461
411721,465,461,462
411722,469,459,461
411723,471,458,461
411724,476,459,463
411725,477,461,459
411726,477,462,463
411727,476,459,462
411728,475,461,459
411729,475,460,461
411730,471,460,462
411731,465,460,461
411732,455,461,460
411733,451,460,462
411734,444,461,461
411735,440,459,461
411736,440,462,460
411737,441,461,459
411738,447,461,462
411739,450,461,461
411740,453,459,460
411741,457,458,461
411742,458,461,459
411743,462,460,461
411744,461,460,461
411745,463,461,462
411746,464,460,461
411747,466,459,459
411748,468,461,461
411749,465,459,459
411750,468,460,460
411751,469,461,458
411752,469,460,462
411753,467,460,461
411754,465,459,462
411755,462,460,461
411756,458,461,461
411757,456,461,460
411758,456,460,461
411759,458,460,462
411760,456,460,460
411761,460,461,461
411762,460,461,462
411763,460,460,462
411764,457,460,461
411765,457,460,461
411766,457,460,461
411767,456,460,461
411768,457,458,461
411769,457,461,462
411770,461,461,461
411771,462,460,462
411772,461,459,460
411773,461,460,461
411774,460,462,462
411775,461,460,461
411776,455,460,460
411777,455,460,460
411778,457,460,462
411779,453,463,461
411780,457,461,459
411781,457,459,461
411782,460,459,461
411783,465,461,460
411784,466,460,462
411785,468,461,462
411786,470,460,461
411787,471,459,460
411788,471,460,460
411789,467,461,462
411790,464,461,460
411791,460,461,462
411792,457,460,460
411793,451,461,461
411794,450,461,462
411795,448,461,461
411796,447,459,462
411797,446,461,462
411798,450,461,462
411799,452,458,460
411800,455,460,460
411801,455,467,462
411802,457,460,460
411803,459,461,460
411804,463,461,460
411805,467,460,462
411806,469,460,461
411807,469,459,462
411808,466,459,462
411809,468,461,460
411810,467,461,461
411811,467,460,461
411812,464,460,460
411813,461,461,461
411814,459,459,461
411815,458,460,461
411816,458,461,462
411817,459,461,462
411818,458,460,462
411819,457,459,461
411820,455,460,461
411821,454,460,462
411822,452,461,462
411823,448,461,459
411824,449,461,461
411825,449,460,460
411826,449,461,459
411827,448,460,462
411828,447,461,462
411829,445,459,461
411830,447,461,461
411831,444,461,461
411832,445,461,460
411833,444,460,461
411834,443,461,460
411835,443,461,463
411836,442,461,460
411837,439,459,460
411838,436,461,460
411839,436,462,461
411840,436,458,461
411841,437,460,460
411842,436,459,461
411843,434,459,460
411844,434,461,461
411845,436,460,460
411846,432,462,461
411847,429,461,460
411848,425,459,459
411849,422,460,461
411850,421,460,462
411851,418,459,462
411852,415,461,461
411853,411,458,460
411854,413,459,460
411855,417,460,460
411856,419,460,460
411857,418,462,461
411858,419,459,461
411859,418,462,461
411860,420,460,460
411861,423,461,462
411862,425,459,461
411863,426,460,462
411864,425,460,461
411865,427,461,460
411866,428,460,462
411867,428,461,460
411868,428,460,460
411869,430,462,461
411870,430,461,459
411871,428,460,462
411872,430,461,459
411873,429,461,461
411874,428,460,462
411875,426,460,461
411876,423,459,460
411877,423,459,461
411878,423,460,461
411879,419,462,462
411880,422,461,460
411881,423,460,461
411882,421,462,460
411883,423,460,461
411884,422,459,461
411885,421,459,462
411886,423,460,462
411887,421,459,460
411888,423,460,461
411889,422,461,462
411890,423,461,460
411891,423,459,461
411892,422,460,461
411893,421,459,461
411894,421,460,462
411895,418,459,462
411896,417,460,462
411897,415,460,463
411898,414,461,461
411899,415,462,462
411900,416,459,463
411901,418,460,460
411902,421,460,460
411903,423,460,460
411904,422,460,462
411905,427,461,460
411906,430,458,461
411907,431,461,462
411908,433,461,463
411909,434,459,462
411910,439,460,461
411911,440,460,460
411912,437,462,462
411913,437,461,460
411914,435,460,460
411915,432,459,460
411916,429,461,461
411917,427,460,460
411918,428,457,461
411919,425,459,461
411920,424,459,462
411921,422,460,461
411922,422,460,459
411923,426,460,461
411924,428,460,460
411925,432,457,460
411926,436,459,462
411927,437,460,462
411928,439,458,462
411929,442,459,462
411930,445,458,462
411931,442,459,460
411932,445,460,459
411933,442,459,460
411934,442,460,460
411935,441,461,461
411936,440,457,462
411937,440,457,461
411938,437,457,461
411939,436,459,462
411940,436,459,464
411941,435,460,462
411942,435,460,461
411943,440,460,463
411944,443,460,462
411945,449,460,461
411946,452,461,461
411947,457,461,462
411948,461,460,461
411949,464,460,462
411950,466,459,463
411951,465,460,461
411952,465,459,462
411953,464,461,461
411954,464,460,462
411955,462,460,461
411956,460,460,462
411957,460,460,462
411958,462,459,461
411959,464,460,462
411960,466,460,462
411961,468,460,462
411962,468,459,462
411963,466,460,461
411964,468,460,462
411965,467,457,462
411966,470,459,462
411967,470,460,460
411968,472,459,461
411969,470,459,462
411970,471,460,462
411971,471,460,460
411972,472,461,461
411973,470,460,458
411974,470,459,462
411975,472,459,462
411976,471,460,463
411977,470,460,460
411978,469,460,460
411979,468,459,462
411980,466,460,462
411981,469,460,461
411982,468,459,462
411983,468,460,461
411984,469,458,461
411985,471,459,462
411986,472,459,462
411987,473,460,461
411988,477,459,457
411989,478,459,462
411990,478,460,461
411991,474,462,460
411992,470,461,464
411993,467,461,460
411994,462,460,460
411995,457,460,462
411996,459,460,462
411997,461,457,461
411998,461,459,462
411999,463,459,462
412000,462,461,462
412001,465,460,459
412002,466,459,459
412003,465,461,459
412004,468,460,462
412005,469,456,461
412006,472,458,461
412007,472,459,461
412008,474,459,461
412009,472,460,461
412010,476,460,461
412011,475,460,460
412012,477,459,461
412013,475,461,460
412014,476,459,462
412015,475,461,462
412016,473,461,462
412017,471,459,462
412018,468,460,461
412019,467,460,461
412020,468,462,460
412021,466,461,460
412022,466,458,462
412023,465,460,461
412024,466,460,461
412025,466,457,462
412026,467,460,461
412027,470,460,462
412028,470,459,462
412029,470,461,461
412030,470,459,462
412031,466,459,460
412032,468,459,462
412033,466,462,461
412034,464,461,461
412035,463,459,461
412036,462,461,461
412037,460,460,461
412038,459,459,462
412039,459,460,460
412040,458,460,459
412041,460,458,461
412042,461,459,461
412043,461,461,461
412044,463,461,462
412045,462,460,461
412046,467,460,462
412047,470,460,461
412048,470,460,461
412049,470,460,462
412050,472,461,461
412051,471,458,461
412052,472,460,462
412053,471,461,461
412054,470,461,462
412055,468,460,462
412056,467,460,461
412057,468,461,461
412058,467,462,462
412059,465,460,462
412060,462,460,463
412061,459,461,460
412062,460,460,462
412063,458,461,462
412064,459,460,462
412065,459,461,462
412066,461,460,459
412067,465,462,459
412068,466,459,460
412069,468,462,461
412070,470,460,462
412071,469,461,461
412072,470,461,461
412073,470,461,461
412074,469,458,461
412075,468,460,462
412076,467,460,462
412077,465,460,461
412078,460,461,463
412079,458,461,459
412080,457,461,460
412081,455,461,460
412082,457,459,460
412083,459,461,461
412084,461,460,462
412085,464,460,464
412086,466,460,462
412087,468,458,460
412088,472,459,461
412089,472,461,460
412090,473,461,462
412091,472,460,461
412092,471,460,460
412093,469,460,461
412094,467,460,461
412095,464,459,461
412096,462,461,463
412097,459,460,461
412098,459,460,460
412099,456,460,461
412100,459,461,461
412101,459,461,462
412102,460,458,462
412103,463,458,461
412104,464,460,461
412105,465,459,461
412106,469,459,461
412107,469,459,462
412108,469,460,462
412109,471,461,462
412110,475,460,458
412111,478,460,460
412112,478,461,460
412113,479,461,462
412114,476,459,461
412115,472,460,461
412116,468,460,461
412117,464,458,461
412118,460,459,461
412119,459,459,461
412120,459,459,461
412121,459,460,461
412122,459,459,460
412123,461,460,460
412124,462,458,460
412125,466,460,461
412126,466,462,461
412127,467,461,461
412128,466,461,461
412129,465,461,463
412130,463,461,462
412131,462,461,461
412132,465,460,462
412133,466,460,461
412134,461,461,459
412135,461,460,463
412136,460,459,460
412137,458,457,461
412138,457,457,460
412139,457,459,461
412140,456,460,461
412141,450,461,462
412142,453,460,461
412143,452,461,459
412144,453,460,461
412145,452,461,461
412146,452,461,462
412147,453,460,462
412148,450,460,462
412149,456,460,462
412150,455,461,462
412151,458,460,461
412152,458,461,461
412153,458,460,461
412154,457,461,461
412155,456,460,462
412156,456,458,459
412157,453,458,462
412158,451,457,461
412159,449,461,461
412160,448,460,459
412161,446,460,460
412162,447,460,461
412163,446,459,460
412164,448,461,460
412165,452,460,462
412166,453,461,462
412167,455,462,460
412168,457,458,460
412169,461,461,461
412170,459,458,461
412171,459,458,461
412172,456,460,461
412173,453,460,459
412174,453,459,461
412175,451,457,461
412176,448,459,461
412177,446,461,460
412178,446,460,462
412179,445,460,461
412180,442,460,460
412181,440,460,462
412182,443,460,461
412183,443,461,462
412184,444,461,461
412185,444,460,461
412186,446,461,461
412187,445,460,461
412188,445,460,460
412189,446,461,461
412190,447,460,462
412191,448,460,462
412192,445,460,460
412193,446,460,462
412194,446,459,461
412195,445,459,461
412196,446,460,461
412197,441,460,461
412198,443,460,460
412199,444,459,461
412200,443,461,462
412201,443,460,461
412202,440,460,462
412203,443,462,460
412204,443,461,460
412205,445,461,461
412206,444,460,461
412207,448,459,461
412208,449,459,461
412209,453,462,461
412210,454,460,462
412211,455,460,461
412212,454,458,460
412213,453,461,461
412214,453,461,461
412215,452,459,462
412216,446,460,460
412217,442,461,461
412218,440,460,460
412219,438,459,462
412220,437,461,461
412221,435,459,461
412222,435,460,460
412223,435,460,461
412224,436,460,462
412225,439,459,461
412226,442,458,462
412227,444,459,461
412228,443,460,461
412229,445,461,461
412230,444,460,459
412231,443,460,458
412232,442,459,459
412233,439,460,464
412234,442,461,462
412235,441,460,462
412236,440,460,461
412237,435,459,461
412238,435,461,460
412239,440,458,460
412240,439,461,461
412241,438,460,461
412242,441,460,463
412243,443,460,460
412244,443,461,462
412245,443,461,461
412246,445,461,461
412247,448,460,460
412248,448,460,461
412249,448,461,461
412250,451,462,461
412251,453,461,462
412252,452,462,461
412253,450,460,461
412254,449,461,461
412255,449,460,460
412256,448,460,458
412257,447,460,459
412258,447,459,462
412259,452,460,462
412260,454,462,462
412261,452,460,462
412262,450,460,459
412263,452,459,461
412264,452,459,461
412265,451,461,458
412266,450,458,461
412267,447,459,461
412268,446,461,461
412269,443,458,461
412270,444,460,460
412271,446,462,461
412272,449,459,460
412273,451,458,461
412274,454,458,461
412275,457,459,461
412276,459,458,461
412277,460,460,461
412278,458,460,461
412279,456,460,461
412280,455,461,462
412281,452,462,461
412282,450,459,460
412283,451,460,461
412284,451,458,461
412285,449,461,460
412286,451,458,460
412287,453,460,461
412288,453,459,461
412289,454,460,461
412290,456,459,461
412291,460,460,461
412292,462,462,461
412293,462,460,458
412294,460,460,460
412295,460,459,461
412296,457,462,460
412297,453,461,461
412298,449,461,460
412299,449,457,460
412300,449,458,459
412301,446,460,460
412302,448,460,461
412303,448,457,461
412304,447,460,461
412305,448,461,461
412306,448,460,460
412307,450,461,463
412308,451,461,461
412309,450,461,462
412310,449,459,462
412311,448,460,463
412312,449,459,461
412313,448,460,461
412314,445,460,461
412315,442,459,462
412316,440,462,460
412317,441,459,460
412318,440,459,461
412319,440,461,460
412320,444,461,461
412321,449,460,462
412322,452,458,461
412323,456,462,461
412324,456,460,461
412325,457,461,460
412326,456,457,461
412327,455,458,461
412328,451,460,460
412329,448,461,461
412330,447,460,461
412331,447,460,460
412332,446,461,459
412333,444,460,460
412334,442,460,460
412335,442,459,460
412336,442,460,458
412337,442,461,461
412338,441,460,460
412339,441,461,459
412340,443,460,461
412341,443,457,462
412342,442,458,460
412343,442,458,462
412344,441,460,462
412345,440,460,461
412346,439,461,462
412347,440,459,461
412348,438,460,462
412349,438,460,461
412350,440,461,460
412351,439,459,461
412352,442,461,461
412353,443,461,461
412354,444,461,459
412355,447,461,461
412356,451,461,462
412357,455,460,462
412358,457,460,459
412359,455,461,459
412360,459,461,459
412361,457,460,459
412362,455,461,460
412363,457,460,462
412364,453,461,458
412365,454,460,460
412366,449,461,462
412367,448,459,461
412368,444,458,460
412369,443,459,462
412370,445,458,462
412371,446,460,461
412372,445,459,461
412373,446,460,461
412374,447,459,461
412375,447,460,461
412376,446,461,461
412377,445,461,462
412378,443,460,461
412379,440,460,462
412380,438,460,461
412381,443,460,459
412382,436,460,460
412383,440,459,460
412384,436,460,461
412385,437,459,460
412386,437,458,457
412387,438,460,459
412388,438,459,459
412389,439,460,461
412390,440,456,462
412391,437,461,462
412392,437,460,461
412393,435,460,458
1741018324955,NEW REP,,
412394,434,460,461
412395,435,460,460
412396,437,458,461
412397,437,460,462
412398,438,461,459
412399,439,460,462
412400,440,462,460
412401,440,459,461
412402,440,461,461
412403,442,459,461
412404,441,461,461
412405,442,460,462
412406,442,459,461
412407,443,461,460
412408,444,457,460
412409,446,461,460
412410,451,460,462
412411,453,460,462
412412,454,460,462
412413,454,462,461
412414,453,461,459
412415,450,461,459
412416,446,462,460
412417,445,460,461
412418,445,460,461
412419,444,461,460
412420,443,461,462
412421,441,462,462
412422,442,461,462
412423,444,458,459
412424,444,460,462
412425,445,459,462
412426,446,461,461
412427,446,460,459
412428,449,460,459
412429,449,461,460
412430,449,460,461
412431,447,460,460
412432,447,460,459
412433,446,460,460
412434,444,457,460
412435,444,460,462
412436,442,460,462
412437,442,460,460
412438,439,460,462
412439,440,460,461
412440,439,461,461
412441,438,460,461
412442,439,460,462
412443,440,462,460
412444,443,462,459
412445,443,461,459
412446,445,457,462
412447,444,458,461
412448,451,459,461
412449,450,461,462
412450,452,459,462
412451,452,460,462
412452,447,458,462
412453,447,460,462
412454,445,459,461
412455,441,459,463
412456,440,460,462
412457,437,460,459
412458,438,460,462
412459,436,459,461
412460,430,461,462
412461,434,458,463
412462,430,460,458
412463,430,461,460
412464,430,460,458
412465,431,460,460
412466,430,459,461
412467,430,460,462
412468,433,461,461
412469,435,460,460
412470,438,460,461
412471,440,459,462
412472,442,460,462
412473,444,460,462
412474,445,460,462
412475,444,460,459
412476,444,462,462
412477,442,461,462
412478,443,459,459
412479,444,460,461
412480,441,460,462
412481,441,460,461
412482,441,461,461
412483,439,461,459
412484,441,461,462
412485,442,460,461
412486,444,459,463
412487,444,460,462
412488,445,458,461
412489,445,457,461
412490,449,457,460
412491,448,459,461
412492,448,461,463
412493,448,460,461
412494,448,460,461
412495,447,460,459
412496,445,458,459
412497,446,461,461
412498,444,461,460
412499,445,462,461
412500,443,461,460
412501,445,460,462
412502,448,460,461
412503,451,460,462
412504,452,460,461
412505,454,459,462
412506,456,458,462
412507,458,459,461
412508,458,459,461
412509,457,459,461
412510,454,461,460
412511,454,457,461
412512,454,459,462
412513,453,462,462
412514,451,461,462
412515,449,459,462
412516,450,461,461
412517,452,460,460
412518,451,459,460
412519,455,459,462
412520,456,460,463
412521,457,460,461
412522,462,461,462
412523,462,459,460
412524,462,460,460
412525,465,460,461
412526,467,459,459
412527,467,460,460
412528,467,460,459
412529,469,460,461
412530,470,457,461
412531,470,460,462
412532,467,461,462
412533,466,461,462
412534,465,460,462
412535,467,460,461
412536,464,459,462
412537,464,461,461
412538,461,461,461
412539,463,459,462
412540,463,461,462
412541,463,460,462
412542,465,460,461
412543,465,461,460
412544,469,460,463
412545,472,461,461
412546,474,458,460
412547,476,458,461
412548,478,461,463
412549,478,459,463
412550,473,461,462
412551,470,461,462
412552,468,460,462
412553,465,462,460
412554,467,460,461
412555,466,460,462
412556,468,462,463
412557,469,461,463
412558,467,461,460
412559,465,458,461
412560,465,458,461
412561,466,460,462
412562,469,458,462
412563,470,459,462
412564,471,460,463
412565,471,460,462
412566,472,458,461
412567,472,458,461
412568,472,462,463
412569,475,460,462
412570,479,460,462
412571,478,458,460
412572,479,459,461
412573,479,461,461
412574,474,459,462
412575,475,462,464
412576,473,460,461
412577,470,461,462
412578,469,461,462
412579,467,461,461
412580,463,460,459
412581,463,458,461
412582,463,461,462
412583,465,461,461
412584,466,460,460
412585,469,461,460
412586,473,462,461
412587,476,460,462
412588,475,461,461
412589,475,461,461
412590,472,461,462
412591,468,461,459
412592,470,462,464
412593,471,460,459
412594,472,460,460
412595,468,461,462
412596,464,462,460
412597,460,460,459
412598,458,460,462
412599,458,461,460
412600,458,459,460
412601,458,459,462
412602,455,458,461
412603,455,460,462
412604,452,461,459
412605,452,461,462
412606,456,461,459
412610,467,460,461
412611,465,460,459
412612,466,459,460
412613,466,462,462
412614,465,462,462
412615,463,460,461
412616,455,459,461
412616,454,461,462
412617,453,460,460
412618,453,457,462
412619,456,464,462
412620,459,460,461
412621,462,459,462
412622,462,460,462
412623,462,461,461
412623,460,461,461
412624,457,462,462
412625,453,459,462
412626,449,460,461
412627,447,459,461
412628,447,461,461
412629,446,461,463
412630,446,461,461
412631,446,460,463
412631,445,460,461
412632,443,462,461
412633,445,460,463
412634,442,460,461
412635,442,460,462
412636,441,459,463
412637,440,460,463
412638,441,461,462
412639,439,460,461
412640,442,459,459
412641,443,461,464
412642,444,461,461
412643,444,458,461
412644,444,462,461
412645,443,460,462
412646,439,462,462
412647,440,462,461
412648,440,460,461
412649,440,460,461
412650,442,460,462
412651,443,460,459
412652,437,460,459
412653,433,460,458
412654,428,461,460
412655,428,460,459
412656,429,462,462
412657,428,460,460
412658,427,461,460
412659,426,461,459
412660,427,458,462
412661,431,457,461
412662,438,460,462
412663,441,461,461
412664,446,459,460
412665,449,465,461
412666,451,461,460
412667,457,461,461
412668,459,458,461
412669,462,461,463
412670,466,460,462
412671,459,459,462
412672,456,461,458
412673,453,459,460
412674,447,460,462
412675,441,462,459
412676,441,461,460
412677,433,461,458
412678,429,460,462
412679,427,459,462
412680,427,461,460
412681,433,460,462
412682,440,460,461
412683,443,461,461
412684,446,457,461
412685,446,462,460
412686,449,461,460
412687,451,459,460
412688,455,460,460
412689,459,461,461
412690,466,458,462
412691,464,460,462
412692,464,461,463
412693,463,461,461
412694,464,461,461
412695,461,461,460
412696,456,462,459
412697,452,461,463
412698,453,460,462
412699,455,459,461
412700,454,461,462
412701,453,461,461
412702,451,460,459
412703,450,460,461
412704,447,459,462
412705,451,461,463
412706,454,459,462
412707,456,461,460
412708,455,461,463
412709,458,460,463
412710,459,461,462
412711,459,462,462
412712,462,462,461
412713,465,461,462
412714,465,461,461
412715,464,462,461
412716,462,461,462
412717,461,459,462
412718,459,460,461
412719,460,460,463
412720,461,460,461
412721,463,460,463
412722,466,461,462
412723,469,459,460
412724,470,460,461
412725,468,461,462
412726,469,461,461
412727,470,461,461
412728,473,458,462
412729,474,459,461
412730,473,460,461
412731,476,460,462
412732,477,459,460
412733,476,459,461
412734,474,459,461
412735,470,460,460
412736,467,460,461
412737,466,461,462
412738,464,461,462
412739,462,461,458
412740,462,460,459
412741,460,460,463
412742,462,461,463
412743,465,461,462
412744,466,461,462
412745,467,461,463
412746,465,459,462
412747,463,458,462
412748,463,460,463
412749,462,461,461
412750,463,461,461
412751,463,461,462
412752,463,460,463
412753,465,460,459
412754,466,461,460
412755,460,461,462
412756,457,461,462
412757,450,459,461
412758,445,458,462
412759,439,461,461
412760,440,461,459
412761,442,461,460
412762,445,461,462
412763,448,461,462
412764,450,461,462
412765,450,461,462
412766,444,460,461
412767,440,461,461
412768,434,460,462
412769,430,460,463
412770,429,461,463
412771,430,461,459
412772,433,460,461
412773,440,457,464
412774,444,457,461
412775,449,457,462
412776,453,461,462
412777,456,459,462
412778,454,461,462
412779,454,461,461
412780,451,460,459
412781,447,460,462
412782,444,461,462
412783,438,461,462
412784,435,461,460
412785,439,457,461
412786,444,460,461
412787,448,460,462
412788,456,459,462
412789,462,460,461
412790,469,458,462
412791,471,459,461
412792,478,460,462
412793,480,460,463
412794,484,461,461
412795,488,461,462
412796,488,460,462
412797,488,459,462
412798,488,458,461
412799,486,459,462
412800,486,457,461
412801,487,461,461
412802,488,461,460
412803,488,459,462
412804,483,458,461
412805,479,461,461
412806,475,459,462
412807,471,457,462
412808,470,459,462
412809,467,461,462
412810,467,459,462
412811,468,462,462
412812,468,461,462
412813,467,461,462
412814,467,460,460
412815,462,458,461
412816,455,462,461
412817,450,461,462
412818,447,459,462
412819,445,459,461
412820,444,461,462
412821,447,460,461
412822,450,461,461
412823,454,460,462
412824,457,460,461
412825,458,460,461
412826,461,460,461
412827,460,460,458
412828,461,460,461
412829,455,461,462
412830,449,460,461
412831,440,461,463
412832,432,461,462
412833,427,458,462
412834,426,459,460
412835,429,458,461
412836,435,460,461
412837,439,461,462
412838,439,461,463
412839,439,461,461
412840,438,461,463
412841,440,460,462
412842,441,460,461
412843,442,461,461
412844,443,461,464
412845,441,459,462
412846,438,461,462
412847,434,461,459
412848,436,460,462
412849,437,460,462
412850,443,461,462
412851,448,461,462
412852,453,462,459
412853,454,460,461
412854,457,461,460
412855,457,461,463
412856,455,460,463
412857,450,460,462
412858,446,461,462
412859,440,460,461
412860,432,460,460
412861,426,461,461
412862,417,460,461
412863,415,461,462
412864,416,458,462
412865,417,461,462
412866,423,461,461
412867,431,460,461
412868,436,460,461
412869,449,461,462
412870,456,459,462
412871,463,461,461
412872,466,457,462
412873,466,459,462
412874,465,461,461
412875,462,462,462
412876,462,460,462
412877,464,460,463
412878,468,461,462
412879,472,462,462
412880,473,460,461
412881,476,459,462
412882,477,462,462
412883,478,460,461
412884,475,460,461
412885,470,460,462
412886,460,460,460
412887,449,461,461
412888,440,460,460
412889,437,462,462
412890,440,461,462
412891,442,460,460
412892,445,457,462
412893,447,461,462
412894,453,461,461
412895,459,460,461
412896,464,460,464
412897,470,460,461
412898,471,459,462
412899,470,460,459
412900,469,460,460
412901,467,460,461
412902,463,460,460
412903,467,460,461
412904,471,460,461
412905,476,461,461
412906,482,459,461
412907,486,460,461
412908,488,459,462
412909,488,461,463
412910,485,462,462
412911,484,460,462
412912,477,459,462
412913,473,462,460
412914,470,460,460
412915,466,458,461
412916,464,462,460
412917,462,460,461
412918,457,460,462
412919,454,461,462
412920,450,460,462
412921,449,458,462
412922,452,461,461
412923,452,459,460
412924,455,456,462
412925,461,457,462
412926,466,461,461
412927,468,459,462
412928,469,459,462
412929,466,461,461
412930,463,462,461
412931,458,461,461
412932,460,461,460
412933,466,458,460
412934,473,459,462
412935,477,459,461
412936,481,462,460
412937,481,460,459
412938,490,461,461
412939,492,459,462
412940,491,460,461
412941,491,460,459
412942,492,460,463
412943,491,462,463
412944,495,460,461
412945,493,462,462
412946,492,461,460
412947,490,462,458
412948,492,461,461
412949,492,459,459
412950,489,461,462
412951,492,460,461
412952,488,460,462
412953,485,461,459
412954,483,460,461
412955,480,459,462
412956,478,460,462
412957,475,460,462
412958,474,459,462
412959,471,460,462
412960,475,459,462
412961,471,458,461
412962,473,460,462
412963,476,460,461
412964,478,460,461
412965,479,459,460
412966,481,460,462
412967,480,460,460
412968,485,460,461
412969,487,457,461
412970,486,462,461
412971,489,461,461
412972,489,461,462
412973,489,460,462
412974,488,460,461
412975,484,460,461
412976,480,460,462
412977,475,460,460
412978,469,461,461
412979,461,461,462
412980,457,457,462
412981,455,460,462
412982,453,461,462
412983,455,459,462
412984,461,458,462
412985,464,460,461
412986,468,461,458
412987,469,461,460
412988,469,459,458
412989,471,460,460
412990,470,461,460
412991,473,460,460
412992,472,460,459
412993,471,461,458
412994,474,459,463
412995,473,460,461
412996,470,459,462
412997,467,460,460
412998,464,459,462
412999,462,459,462
413000,458,459,462
413001,457,460,463
413002,457,460,460
413003,457,459,459
413004,459,462,462
413005,457,462,463
413006,459,460,461
413007,460,460,460
413008,457,460,462
413009,459,460,461
413010,457,462,461
413011,457,460,462
413012,456,459,461
413013,457,461,461
413014,460,460,462
413015,459,459,463
413016,461,459,461
413017,460,459,458
413018,460,461,458
413019,459,460,462
413020,459,459,462
413021,462,460,462
413022,462,459,462
413023,466,460,461
413024,468,459,461
413025,469,459,458
413026,471,459,460
413027,472,457,460
413028,473,460,461
413029,472,460,462
413030,473,459,461
413031,470,458,461
413032,469,459,461
413033,466,460,461
413034,463,460,461
413035,461,460,462
413036,458,461,462
413037,455,459,462
413038,451,459,461
413039,447,460,460
413040,447,459,461
413041,445,458,462
413042,444,461,461
413043,446,460,462
413044,446,460,461
413045,447,459,461
413046,450,459,462
413047,451,459,461
413048,455,461,462
413049,455,461,462
413050,456,460,459
413051,456,461,459
413052,457,459,458
413053,454,459,460
413054,450,461,460
413055,446,460,461
413056,443,460,462
413057,442,459,460
413058,434,460,460
413059,436,458,460
413060,437,460,462
413061,437,459,461
413062,437,461,460
413063,436,460,460
413064,435,459,461
413065,438,459,462
413066,440,460,461
413067,439,461,460
413068,443,461,461
413069,443,459,461
413070,443,460,461
413071,444,462,461
413072,443,460,462
413073,442,459,461
413074,442,460,463
413075,440,459,461
413076,440,459,460
413077,435,459,461
413078,436,460,460
413079,435,460,461
413080,433,462,461
413081,436,461,461
413082,438,460,461
413083,440,457,461
413084,443,457,462
413085,444,460,459
413086,444,460,460
413087,446,461,459
413088,447,462,459
413089,450,459,461
413090,449,459,461
413091,450,460,461
413092,446,460,459
413093,444,460,460
413094,440,459,463
413095,437,462,461
413096,434,460,461
413097,433,458,462
413098,431,459,461
413099,433,460,461
413100,432,460,462
413101,433,461,462
413102,434,461,463
413103,436,460,462
413104,436,462,460
413105,438,461,460
413106,439,457,460
413107,440,458,460
413108,438,458,461
413109,438,457,462
413110,433,460,461
413111,431,460,462
413112,436,460,461
413113,433,460,462
413114,432,460,460
413115,430,460,462
413116,431,459,461
413117,431,459,462
413118,430,461,462
413119,429,460,461
413120,427,459,461
413121,426,461,460
413122,423,461,460
413123,423,460,461
413124,421,460,462
413125,425,462,461
413126,427,459,462
413127,427,460,461
413128,425,459,462
413129,427,459,461
413130,426,458,461
413131,424,458,461
413132,422,458,462
413133,418,460,460
413134,416,457,461
413135,414,460,458
413136,413,459,459
413137,416,461,461
413138,416,458,461
413139,415,460,461
413140,414,460,460
413141,414,462,461
413142,417,461,459
413143,420,460,462
413144,419,459,462
413145,426,459,461
413146,426,459,461
413147,429,460,460
413148,433,460,460
413149,434,460,461
413150,434,459,461
413151,436,461,461
413152,436,460,463
413153,433,460,462
413154,429,459,462
413155,425,460,460
413156,419,458,460
413157,413,459,462
413158,410,460,463
413159,405,459,462
413160,401,459,462
413161,399,460,461
413162,401,453,460
413163,405,462,460
413164,412,461,461
413165,418,460,461
413166,424,460,462
413167,430,460,461
413168,434,460,463
413169,437,460,461
413170,440,459,462
413171,442,459,462
413172,441,461,462
413173,444,461,461
413174,444,460,460
413175,445,460,459
413176,445,459,462
413177,446,458,462
413178,445,458,462
413179,445,459,461
413180,444,460,460
413181,444,461,460
413182,448,461,461
413183,449,460,463
413184,450,461,461
413185,457,461,461
413186,461,460,460
413187,464,461,461
413188,465,458,462
413189,468,459,461
413190,467,460,460
413191,466,462,461
413192,467,460,461
413193,462,460,461
413194,459,461,459
413195,456,460,462
413196,455,460,461
413197,455,460,462
413198,453,461,462
413199,453,461,461
413200,454,459,462
413201,451,455,460
413202,449,459,462
413203,446,461,461
413204,442,460,460
413205,437,461,461
413206,438,461,460
413207,440,460,459
413208,445,461,462
413209,451,460,462
413210,461,460,462
413211,464,460,462
413212,468,459,462
413213,467,460,461
413214,467,460,461
413215,468,460,460
413216,464,461,459
413217,462,461,459
413218,463,461,461
413219,463,459,462
413220,461,460,462
413221,462,462,461
413222,465,461,462
413223,468,459,462
413224,472,460,462
413225,474,460,460
413226,473,459,461
413227,472,458,461
413228,471,459,462
413229,470,460,463
413230,468,460,461
413231,463,461,462
413232,458,458,461
413233,448,461,462
413234,439,461,459
413235,432,461,459
413236,430,458,462
413237,432,460,463
413238,437,459,461
413239,439,460,461
413240,444,461,460
413241,450,461,460
413242,452,461,462
413243,458,460,463
413244,459,461,461
413245,463,461,461
413246,468,459,461
413247,473,461,461
413248,478,458,461
413249,483,458,460
413250,486,460,462
413251,486,461,460
413252,483,460,461
413253,483,460,459
413254,481,458,460
413255,485,461,461
413256,487,462,459
413257,486,460,462
413258,487,461,462
413259,484,460,459
413260,478,460,459
413261,478,460,460
413262,475,457,461
413263,473,461,461
413264,471,460,462
413265,472,460,463
413266,473,460,461
413267,475,461,461
413268,477,462,462
413269,476,460,460
413270,474,460,462
413271,472,461,461
413272,471,459,460
413273,472,460,462
413274,472,460,462
413275,475,458,461
413276,476,462,462
413277,476,461,458
413278,479,461,461
413279,479,461,461
413280,479,460,461
413281,478,461,460
413282,473,461,461
413283,470,460,462
413284,466,460,460
413285,464,460,462
413286,460,461,461
413287,460,455,460
413288,459,458,461
413289,461,459,462
413290,466,460,462
413291,471,460,463
413292,473,462,461
413293,476,461,461
413294,478,460,462
413295,477,460,459
413296,479,460,460
413297,478,460,461
413298,477,460,461
413299,475,459,462
413300,473,458,461
413301,472,460,461
413302,472,460,462
413303,474,460,462
413304,478,461,462
413305,479,460,462
413306,484,458,461
413307,486,461,463
413308,490,461,462
413309,492,460,462
413310,491,463,460
413311,492,460,460
413312,492,460,461
413313,490,460,462
413314,489,460,461
413315,486,459,462
413316,484,460,462
413317,480,462,461
413318,480,462,459
413319,479,461,462
413320,476,461,461
413321,473,460,462
413322,469,462,462
413323,465,460,462
413324,464,460,462
413325,463,459,461
413326,462,459,462
413327,462,459,461
413328,457,462,460
413329,457,462,461
413330,457,461,461
413331,456,460,459
413332,457,461,462
413333,455,462,461
413334,455,461,462
413335,454,461,461
413336,457,460,461
413337,462,461,462
413338,463,458,461
413339,465,458,462
413340,467,458,461
413341,471,462,461
413342,474,461,462
413343,477,459,461
413344,481,460,462
413345,485,460,463
413346,484,461,458
413347,487,459,463
413348,487,459,462
413349,487,460,463
413350,487,460,458
413351,487,462,462
413352,485,461,462
413353,481,459,463
413354,479,461,462
413355,474,460,462
413356,466,461,461
413357,460,461,461
413358,456,460,462
413359,454,459,462
413360,453,461,461
413361,455,460,458
413362,458,460,461
413363,461,460,460
413364,467,460,462
413365,471,461,462
413366,473,459,462
413367,480,461,461
413368,481,460,464
413369,484,461,462
413370,483,461,461
413371,480,461,459
413372,479,461,458
413373,477,460,460
413374,477,460,462
413375,476,461,460
413376,470,460,462
413377,467,461,459
413378,464,460,461
413379,462,462,460
413380,456,460,462
413381,458,460,461
413382,459,460,461
413383,459,461,461
413384,458,462,462
413385,456,459,462
413386,456,462,461
413387,455,460,461
413388,457,457,460
413389,458,461,464
413390,460,459,460
413391,459,462,461
413392,461,459,461
413393,459,462,462
413394,457,461,461
413395,453,460,461
413396,446,458,460
413397,441,461,459
413398,436,461,461
413399,434,460,460
413400,431,462,460
413401,430,459,460
413402,430,460,461
413403,428,459,460
413404,430,459,463
413405,433,459,461
413406,432,461,462
413407,434,459,460
413408,434,460,461
413409,437,459,461
413410,439,460,461
413411,440,460,458
413412,443,458,461
413413,443,457,461
413414,444,460,461
413415,444,462,461
413416,441,460,460
413417,439,460,462
413418,436,459,461
413419,434,460,459
413420,437,458,462
413421,441,460,461
413422,442,455,462
413423,443,460,463
413424,445,462,462
413425,446,460,461
413426,448,460,463
413427,449,459,461
413428,452,461,462
413429,452,460,462
413430,456,457,461
413431,456,460,462
413432,456,459,458
413433,457,460,461
413434,454,459,462
413435,454,460,461
413436,453,460,462
413437,451,462,461
413438,451,458,461
413439,449,459,462
413440,447,459,460
413441,449,460,460
413442,449,461,461
413443,453,459,462
413444,456,461,461
413445,459,461,461
413446,464,460,461
413447,468,458,462
413448,472,461,461
413449,478,459,461
413450,480,461,462
413451,482,460,461
413452,485,458,462
413453,485,459,460
413454,482,460,460
413455,483,462,459
413456,480,460,461
413457,479,459,460
413458,481,460,462
413459,480,460,461
413460,479,459,462
413461,479,461,461
413462,477,461,461
413463,478,460,459
413464,479,459,462
413465,481,462,458
413466,482,460,461
413467,484,461,461
413468,488,460,461
413469,486,462,460
413470,485,461,459
413471,486,459,460
413472,482,460,459
413473,480,461,460
413474,477,461,461
413475,473,460,459
413476,472,460,459
413477,473,460,462
413478,472,460,462
413479,470,461,461
413480,469,461,461
413481,468,461,460
413482,464,460,457
413483,468,459,461
413484,470,458,461
413485,471,460,461
413486,477,460,461
413487,479,461,461
413488,478,460,460
413489,484,461,459
413490,484,462,460
413491,483,461,461
413492,482,461,462
413493,477,462,462
413494,473,459,460
413495,466,460,460
413496,462,460,462
413497,461,461,459
413498,460,459,460
413499,460,461,462
413500,462,461,462
413501,463,462,461
413502,467,460,461
413503,469,459,461
413504,473,462,462
413505,475,460,458
413506,482,460,461
413507,484,461,460
413508,489,461,461
413509,490,460,462
413510,493,459,462
413511,494,460,462
413512,494,457,460
413513,495,460,460
413514,494,460,460
413515,492,460,461
413516,489,459,462
413517,486,460,460
413518,483,461,461
413519,481,460,461
413520,479,460,461
413521,477,461,462
413522,477,462,462
413523,476,461,463
413524,475,460,462
413525,476,460,462
413526,476,459,462
413527,474,460,461
413528,472,461,462
413529,469,459,463
413530,470,460,462
413531,468,461,460
413532,466,461,463
413533,464,461,462
413534,466,459,461
413535,466,460,460
413536,468,460,460
413537,470,461,461
413538,470,459,461
413539,473,460,461
413540,474,460,461
413541,474,461,460
413542,476,459,462
413543,478,460,461
413544,478,458,460
413545,480,458,462
413546,481,458,461
413547,480,459,462
413548,479,461,462
413549,482,460,460
413550,481,460,461
413551,482,460,463
413552,478,458,462
413553,475,461,462
413554,472,461,461
413555,468,460,461
413556,466,457,461
413557,465,461,461
413558,465,462,461
413559,462,459,462
413560,460,461,462
413561,461,460,460
413562,459,461,461
413563,461,459,461
413564,462,461,461
413565,460,459,462
413566,461,461,462
413567,464,461,461
413568,467,460,461
413569,468,461,462
413570,467,462,461
413571,468,461,461
413572,465,462,462
413573,461,460,462
413574,463,459,461
413575,463,460,460
413576,463,460,462
413577,464,462,461
413578,465,462,462
413579,466,458,460
413580,467,457,462
413581,468,460,461
413582,467,460,460
413583,467,461,462
413584,468,460,461
413585,470,461,460
413586,472,461,461
413587,469,461,460
413588,471,461,462
413589,471,460,457
413590,474,458,462
413591,476,461,461
413592,474,461,459
413593,474,462,461
413594,473,460,461
413595,469,460,460
413596,469,460,462
413597,467,461,462
413598,466,461,461
413599,466,461,461
413600,465,459,461
413601,464,461,460
413602,467,461,462
413603,469,460,463
413604,470,461,462
413605,471,458,460
413606,474,459,460
413607,475,462,460
413608,476,461,462
413609,482,461,462
413610,480,459,462
413611,482,461,462
413612,485,459,462
413613,481,461,461
413614,480,462,460
413615,480,461,462
413616,477,460,461
413617,474,460,462
413618,477,460,461
413619,475,459,461
413620,471,458,460
413621,469,459,460
413622,468,461,460
413623,471,460,461
413624,472,461,461
413625,475,457,461
413626,476,461,460
413627,479,458,461
413628,480,461,460
413629,484,458,462
413630,483,459,460
413631,485,460,459
413632,486,460,461
413633,485,459,459
413634,485,461,462
413635,484,457,462
413636,478,460,460
413637,477,461,462
413638,475,461,462
413639,471,459,460
413640,470,461,460
413641,467,461,461
413642,466,459,462
413643,470,460,461
413644,470,459,460
413645,471,460,461
413646,468,460,462
413647,467,462,461
413648,467,460,460
413649,469,460,462
413650,470,459,461
413651,471,461,463
413652,471,462,460
413653,471,459,462
413654,471,460,461
413655,470,459,462
413656,467,461,462
413657,468,457,461
413658,467,460,460
413659,468,460,462
413660,467,461,461
413661,468,461,462
413662,467,463,462
413663,467,460,461
413664,469,460,462
413665,473,461,462
413666,474,461,461
413667,474,461,460
413668,480,460,459
413669,483,460,462
413670,490,460,462
413671,491,462,460
413672,491,460,462
413673,490,459,462
413674,486,460,459
413675,486,457,461
413676,485,460,460
413677,486,459,461
413678,486,459,462
413679,485,460,462
413680,486,460,461
413681,487,460,461
413682,490,459,462
413683,493,458,461
413684,493,459,459
413685,495,460,457
413686,498,460,461
413687,498,461,460
413688,501,461,461
413689,500,459,462
413690,500,462,461
413691,500,460,459
413692,501,460,460
413693,499,460,461
413694,499,461,461
413695,496,460,461
413696,498,458,459
413697,495,458,460
413698,493,457,461
413699,495,460,461
413700,493,461,461
413701,491,461,463
413702,495,459,461
413703,496,457,461
413704,495,460,461
413705,497,461,460
413706,499,458,461
413707,498,460,461
413708,500,460,458
413709,500,461,462
413710,501,460,462
413711,503,460,461
413712,500,460,460
413713,498,462,462
413714,496,460,462
413715,495,460,462
413716,492,460,458
413717,493,460,463
413718,493,460,462
413719,492,460,462
413720,488,462,459
413721,489,460,459
413722,491,460,462
413723,492,459,462
413724,493,459,463
413725,493,460,463
413726,495,461,459
413727,497,461,460
413728,497,461,462
413729,493,460,460
413730,499,461,460
413731,499,460,462
413732,502,459,462
413733,503,460,460
413734,501,461,461
413735,499,461,463
413736,496,460,461
413737,492,461,462
413738,488,461,461
413739,485,461,461
413740,483,460,460
413741,483,453,460
413742,484,460,461
413743,486,460,463
413744,483,462,460
413745,483,462,460
413746,483,460,461
413747,482,460,462
413748,483,459,462
413749,486,461,462
413750,484,459,462
413751,484,460,461
413752,481,461,461
413753,480,461,459
413754,478,461,459
413755,481,460,462
413756,480,461,463
413757,479,459,459
413758,478,461,461
413759,479,458,462
413760,478,461,461
413761,480,459,463
413762,481,460,462
413763,489,461,460
413764,483,461,463
413765,486,457,462
413766,484,460,462
413767,484,460,461
413768,487,459,462
413769,486,459,461
413770,488,460,462
413771,488,460,461
413772,484,458,462
413773,484,461,460
413774,481,462,459
413775,480,461,460
413776,478,462,462
413777,481,459,461
413778,479,461,460
413779,476,461,460
413780,476,461,463
413781,475,460,460
413782,475,461,461
413783,475,460,461
413784,475,463,462
413785,476,462,461
413786,479,460,461
413787,477,461,459
413788,477,460,459
413789,478,459,463
413790,477,461,463
413791,479,460,462
413792,478,457,461
413793,477,459,462
413794,475,460,463
413795,473,459,461
413796,471,462,462
413797,467,458,461
413798,468,460,463
413799,465,461,461
413800,467,461,463
413801,468,461,460
413802,467,462,459
413803,470,459,453
413804,465,459,461
413805,470,459,461
413806,472,460,462
413807,474,459,462
413808,477,461,462
413809,479,461,458
413810,483,461,461
413811,478,460,463
413812,481,460,461
413813,480,462,463
413814,481,460,462
413815,479,459,462
413816,477,460,462
413817,474,462,461
413818,472,458,460
413819,471,461,461
413820,469,460,460
413821,471,461,462
413822,470,462,461
413823,473,459,461
413824,473,460,461
413825,472,460,459
413826,476,460,462
413827,475,462,461
413828,477,460,462
413829,477,462,463
413830,479,461,461
413831,479,460,461
413832,482,460,461
413833,480,460,463
413834,480,462,461
413835,479,460,461
413836,476,461,462
413837,473,459,460
413838,472,461,462
413839,470,461,461
413840,468,459,462
413841,466,461,460
413842,466,460,461
413843,465,463,459
413844,465,459,460
413845,467,460,461
413846,470,458,461
413847,470,461,463
413848,471,462,462
413849,473,461,462
413850,472,460,462
413851,470,460,460
413852,469,460,462
413853,467,461,462
413854,466,461,461
413855,465,460,461
413856,463,461,461
413857,463,460,460
413858,460,460,462
413859,460,457,461
413860,459,461,461
413861,458,461,462
413862,459,460,460
413863,460,461,462
413864,461,461,458
413865,463,462,459
413866,462,461,459
413867,465,461,461
413868,466,461,459
413869,468,461,461
413870,470,460,461
413871,470,461,461
413872,468,461,459
413873,468,459,461
413874,464,461,461
413875,462,461,462
413876,461,461,460
413877,461,461,462
413878,458,461,461
413879,457,462,463
413880,457,461,459
413881,457,460,461
413882,457,460,459
413883,459,461,461
413884,461,461,461
413885,465,461,462
413886,466,461,462
413887,470,459,461
413888,469,459,461
413889,471,461,462
413890,473,461,461
413891,476,461,461
413892,475,462,461
413893,474,459,461
413894,475,462,462
413895,477,460,461
413896,474,461,461
413897,472,462,458
413898,473,461,461
413899,470,460,459
413900,469,461,461
413901,468,461,459
413902,467,459,463
413903,470,460,460
413904,469,461,461
413905,468,460,462
413906,470,460,462
413907,471,461,461
413908,472,462,462
413909,476,459,460
413910,474,462,462
413911,476,460,460
413912,477,460,462
413913,479,461,461
413914,473,461,462
413915,474,460,462
413916,476,461,461
413917,480,461,463
413918,477,462,460
413919,480,460,461
413920,479,461,461
413921,478,461,461
413922,480,460,462
413923,476,462,461
413924,479,459,461
413925,480,460,462
413926,482,461,462
413927,480,460,460
413928,478,462,461
413929,478,459,459
413930,477,461,460
413931,478,460,461
413932,478,460,461
413933,478,458,460
413934,476,459,460
413935,476,458,462
413936,475,461,461
413937,472,458,462
413938,471,460,462
413939,468,459,461
413940,465,461,458
413941,465,461,462
413942,463,462,459
413943,465,461,458
413944,467,461,462
413945,469,460,462
413946,469,460,462
413947,470,461,461
413948,473,459,461
413949,475,460,459
413950,476,460,461
413951,476,461,462
413952,474,460,461
413953,476,460,462
413954,475,458,460
413955,476,461,460
413956,474,460,462
413957,474,461,461
413958,474,460,462
413959,473,459,462
413960,472,462,461
413961,468,459,461
413962,469,461,461
413963,466,461,461
413964,466,460,460
413965,470,461,461
413966,472,463,462
413967,475,458,461
413968,475,462,462
413969,479,462,462
413970,483,461,461
413971,481,460,463
413972,479,460,462
413973,478,457,461
413974,475,461,462
413975,472,461,460
413976,470,461,461
413977,467,459,460
413978,467,461,460
413979,469,461,462
413980,468,460,461
413981,469,461,461
413982,472,459,459
413983,473,461,461
413984,472,461,462
413985,474,462,462
413986,472,460,459
413987,474,461,462
413988,472,462,463
413989,475,462,462
413990,476,461,460
413991,477,461,458
413992,479,460,461
413993,482,460,462
413994,480,461,460
413995,481,458,461
413996,480,460,461
413997,479,460,462
413998,477,461,462
413999,478,461,462
414000,477,462,461
414001,477,462,462
414002,476,460,462
414003,479,461,462
414004,482,461,461
414005,482,460,462
414006,484,459,462
414007,485,460,462
414008,486,461,462
414009,486,460,461
414010,482,462,460
414011,487,461,463
414012,491,461,462
414013,490,460,463
414014,490,461,462
414015,488,458,461
414016,487,461,461
414017,485,460,462
414018,481,461,461
414019,479,460,462
414020,477,460,463
414021,478,462,462
414022,483,460,463
414023,486,459,463
414024,488,459,462
414025,489,460,461
414026,491,459,461
414027,492,459,459
414028,497,461,461
414029,499,461,461
414030,501,462,462
414031,504,459,461
414032,503,459,461
414033,501,461,461
414034,499,461,461
414035,499,462,459
414036,497,461,460
414037,498,461,463
414038,501,460,462
414039,500,460,462
414040,500,460,461
414041,500,462,461
414042,501,459,461
414043,499,458,461
414044,500,461,461
414045,501,461,462
414046,502,459,461
414047,503,461,463
414048,504,460,462
414049,502,460,462
414050,504,460,461
414051,507,459,462
414052,508,459,461
414053,507,458,460
414054,507,462,462
414055,507,461,463
414056,508,461,460
414057,510,461,461
414058,504,460,462
414059,504,460,461
414060,506,460,460
414061,506,461,461
414062,510,458,460
414063,512,460,461
414064,518,460,462
414065,524,460,461
414066,525,461,460
414067,524,459,462
414068,522,459,462
414069,517,460,461
414070,512,458,463
414071,506,461,462
414072,501,460,462
414073,498,460,459
414074,497,461,461
414075,496,461,460
414076,496,460,462
1741018326638,NEW REP,,
414077,495,458,461
414078,497,460,464
414079,498,460,462
414080,501,459,460
414081,504,460,460
414082,506,459,460
414083,507,459,462
414084,513,461,461
414085,513,460,461
414086,512,460,460
414087,514,459,462
414088,511,460,460
414089,508,459,460
414090,508,459,459
414091,508,460,462
414092,507,459,461
414093,505,459,462
414094,502,459,459
414095,501,461,462
414096,499,459,461
414097,500,461,462
414098,497,461,462
414099,497,460,462
414100,494,459,461
414101,497,460,462
414102,496,458,462
414103,498,461,461
414104,499,461,461
414105,503,460,461
414106,505,461,461
414107,508,461,462
414108,510,460,461
414109,514,460,461
414110,517,463,462
414111,515,460,462
414112,515,460,461
414113,516,458,459
414114,515,460,462
414115,510,459,462
414116,500,460,460
414117,501,460,463
414118,499,458,461
414119,498,460,459
414120,498,462,461
414121,497,459,461
414122,496,460,462
414123,496,461,461
414124,497,461,461
414125,498,458,462
414126,502,460,461
414127,503,461,461
414128,502,460,460
414129,504,461,460
414130,505,460,461
414131,503,461,461
414132,506,460,462
414133,506,460,461
414134,504,461,460
414135,503,461,460
414136,498,460,461
414137,499,460,461
414138,497,459,460
414139,496,460,460
414140,496,461,462
414141,498,461,462
414142,501,460,460
414143,500,461,461
414144,502,460,460
414145,500,460,459
414146,499,461,460
414147,498,459,461
414148,494,457,462
414149,493,459,461
414150,491,460,461
414151,486,460,462
414152,489,460,462
414153,488,460,462
414154,492,459,461
414155,492,460,462
414156,491,461,460
414157,490,458,462
414158,487,459,462
414159,483,459,462
414160,479,460,460
414161,476,462,462
414162,476,462,461
414163,477,461,462
414164,478,460,462
414165,480,460,459
414166,480,459,461
414167,482,459,461
414168,483,460,462
414169,485,461,460
414170,484,460,461
414171,492,459,461
414172,494,460,462
414173,493,459,463
414174,496,460,461
414175,495,460,461
414176,492,461,462
414177,486,460,462
414178,477,460,462
414179,470,461,461
414180,461,459,461
414181,457,460,461
414182,453,461,460
414183,452,460,461
414184,450,460,459
414185,454,459,461
414186,457,459,460
414187,463,460,462
414188,469,461,460
414189,477,461,462
414190,483,459,462
414191,486,460,458
414192,485,459,461
414193,484,461,461
414194,479,458,461
414195,472,460,461
414196,467,459,462
414197,460,460,459
414198,457,460,461
414199,451,460,462
414200,446,460,462
414201,441,460,460
414202,439,460,459
414203,440,460,460
414204,441,459,461
414205,439,458,460
414206,443,460,461
414207,444,460,460
414208,446,459,461
414209,446,461,462
414210,446,460,461
414211,447,461,460
414212,445,461,462
414213,441,460,460
414214,440,460,460
414215,437,461,461
414216,436,456,461
414217,434,459,462
414218,441,459,462
414219,443,459,461
414220,443,462,462
414221,442,460,461
414222,440,459,461
414223,435,460,462
414224,430,459,462
414225,426,459,462
414226,428,459,461
414227,426,459,461
414228,426,460,461
414229,422,461,458
414230,426,461,462
414231,428,460,462
414232,432,462,462
414233,431,460,463
414234,437,460,462
414235,437,462,461
414236,441,461,462
414237,438,459,460
414238,435,459,462
414239,435,460,462
414240,431,460,462
414241,427,461,461
414242,426,460,461
414243,423,459,462
414244,422,462,462
414245,426,461,461
414246,428,459,460
414247,433,461,464
414248,437,461,461
414249,442,460,458
414250,442,461,460
414251,439,460,460
414252,435,462,461
414253,428,461,462
414254,425,461,460
414255,423,461,460
414256,423,457,462
414257,421,462,462
414258,423,459,461
414259,423,459,462
414260,427,462,461
414261,424,462,462
414262,427,458,461
414263,425,461,461
414264,429,460,462
414265,429,459,462
414266,431,462,460
414267,431,461,461
414268,432,457,460
414269,431,460,460
414270,430,461,459
414271,428,459,463
414272,427,458,462
414273,429,460,461
414274,430,460,462
414275,434,459,462
414276,434,460,463
414277,431,460,462
414278,425,461,462
414279,424,460,461
414280,419,459,461
414281,418,459,461
414282,416,459,461
414283,415,460,461
414284,419,460,462
414285,422,459,461
414286,423,460,462
414287,421,460,458
414288,426,460,462
414289,427,460,462
414290,430,458,462
414291,430,461,460
414292,431,460,462
414293,429,462,460
414294,426,460,461
414295,421,459,462
414296,417,459,460
414297,414,461,461
414298,411,461,461
414299,412,460,461
414300,412,460,462
414301,414,460,463
414302,416,460,459
414303,417,461,461
414304,420,461,462
414305,423,461,460
414306,426,460,461
414307,428,461,460
414308,431,461,461
414309,431,461,460
414310,429,460,462
414311,428,461,461
414312,427,461,462
414313,423,461,461
414314,418,461,461
414315,411,459,461
414316,404,460,461
414317,399,460,461
414318,399,459,462
414319,398,460,461
414320,400,461,461
414321,405,461,462
414322,409,460,461
414323,414,460,460
414324,417,460,461
414325,417,458,462
414326,416,460,460
414327,415,460,461
414328,414,460,462
414329,414,461,462
414330,412,461,462
414331,413,462,462
414332,414,459,462
414333,416,460,462
414334,418,461,460
414335,418,461,459
414336,421,460,461
414337,419,460,462
414338,419,461,462
414339,418,462,460
414340,419,461,460
414341,420,458,461
414342,421,459,461
414343,421,460,461
414344,420,459,463
414345,420,460,461
414346,420,460,461
414347,421,461,462
414348,424,460,461
414349,428,458,462
414350,430,461,459
414351,434,461,459
414352,431,460,460
414353,431,460,460
414354,422,461,462
414355,423,462,461
414356,421,461,460
414357,423,461,462
414358,423,456,462
414359,424,458,462
414360,425,462,461
414361,425,460,461
414362,429,460,462
414363,433,460,462
414364,433,461,460
414365,436,460,462
414366,439,460,461
414367,439,461,462
414368,443,460,461
414369,445,460,462
414370,444,460,460
414371,441,459,461
414372,444,460,462
414373,444,459,462
414374,444,460,461
414375,440,459,461
414376,436,461,460
414377,430,460,458
414378,428,460,463
414379,430,460,462
414380,427,460,461
414381,425,460,462
414382,428,460,461
414383,429,461,459
414384,435,461,461
414385,439,461,461
414386,442,459,462
414387,442,460,459
414388,444,460,462
414389,444,459,462
414390,445,460,461
414391,445,460,462
414392,448,459,460
414393,447,462,462
414394,444,459,460
414395,439,462,461
414396,435,461,462
414397,434,461,461
414398,434,461,461
414399,435,460,461
414400,438,460,461
414401,434,457,461
414402,433,460,461
414403,430,460,463
414404,431,460,462
414405,435,458,461
414406,437,461,459
414407,442,461,461
414408,441,461,459
414409,438,460,462
414410,439,458,461
414411,437,459,462
414412,436,460,461
414413,437,461,460
414414,439,459,461
414415,439,460,462
414416,436,461,462
414417,435,458,461
414418,434,460,462
414419,433,461,463
414420,434,460,463
414421,435,459,462
414422,437,459,461
414423,440,460,461
414424,440,460,459
414425,442,460,462
414426,443,459,462
414427,450,457,462
414428,452,457,461
414429,452,461,461
414430,455,460,460
414431,451,458,463
414432,452,459,460
414433,449,461,459
414434,447,459,462
414435,442,460,461
414436,441,461,462
414437,437,460,462
414438,431,460,461
414439,428,460,461
414440,422,457,462
414441,417,457,461
414442,413,460,461
414443,410,461,462
414444,410,460,462
414445,411,461,463
414446,409,460,460
414447,410,461,461
414448,413,461,460
414449,413,460,460
414450,416,460,461
414451,421,461,462
414452,421,459,460
414453,422,461,459
414454,425,461,462
414455,427,459,462
414456,424,460,461
414457,423,459,458
414458,419,460,462
414459,414,459,463
414460,413,460,460
414461,408,461,461
414462,412,461,462
414463,413,460,461
414464,416,460,461
414465,416,460,461
414466,415,460,460
414467,417,461,457
414468,417,459,462
414469,418,460,461
414470,416,461,460
414471,413,457,462
414472,410,459,460
414473,409,459,460
414474,407,459,459
414475,407,460,462
414476,401,460,461
414477,396,460,460
414478,394,458,461
414479,392,460,461
414480,392,460,461
414481,390,462,459
414482,390,461,459
414483,393,461,461
414484,396,460,461
414485,400,460,462
414486,404,460,459
414487,405,460,461
414488,407,459,463
414489,411,462,462
414490,414,459,462
414491,415,459,461
414492,416,460,459
414493,416,461,459
414494,415,461,461
414495,410,460,461
414496,404,460,459
414497,400,460,460
414498,397,459,462
414499,393,459,463
414500,394,458,461
414501,397,460,461
414502,402,461,462
414503,406,458,460
414504,413,458,460
414505,420,460,462
414506,425,459,461
414507,431,459,462
414508,434,460,461
414509,438,457,462
414510,439,461,460
414511,438,461,461
414512,437,460,461
414513,434,461,462
414514,433,460,462
414515,427,461,461
414516,427,460,462
414517,424,460,462
414518,423,461,460
414519,423,460,461
414520,425,460,462
414521,425,462,462
414522,424,460,461
414523,424,461,460
414524,423,461,459
414525,424,460,462
414526,425,460,462
414527,425,459,461
414528,418,461,461
414529,414,458,462
414530,410,457,460
414531,407,461,462
414532,407,460,461
414533,409,459,462
414534,410,462,461
414535,413,460,460
414536,415,460,459
414537,421,458,459
414538,424,461,460
414539,430,457,461
414540,431,460,461
414541,431,460,460
414542,429,461,462
414543,426,461,460
414544,423,460,462
414545,426,459,462
414546,427,460,461
414547,432,461,462
414548,432,460,462
414549,437,460,460
414550,439,460,460
414551,440,462,460
414552,441,458,461
414553,439,460,461
414554,433,460,460
414555,425,461,460
414556,418,460,461
414557,410,461,461
414558,402,458,461
414559,398,458,463
414560,398,460,461
414561,402,460,462
414562,414,459,463
414563,424,461,462
414564,434,460,459
414565,447,459,461
414566,457,459,461
414567,465,460,461
414568,471,461,460
414569,475,460,460
414570,477,460,461
414571,476,461,461
414572,476,461,461
414573,475,460,462
414574,474,461,462
414575,474,460,463
414576,471,460,459
414577,468,461,461
414578,470,461,462
414579,470,460,460
414580,472,461,461
414581,469,461,462
414582,473,461,461
414583,472,460,461
414584,473,461,460
414585,472,461,461
414586,470,460,460
414587,467,461,461
414588,464,460,462
414589,469,461,461
414590,475,461,460
414591,478,459,461
414592,486,461,460
414593,485,460,459
414594,483,460,461
414595,483,460,461
414596,478,459,462
414597,474,459,461
414598,466,461,462
414599,463,459,461
414600,462,458,461
414601,464,459,461
414602,473,462,462
414603,479,460,462
414604,488,460,460
414605,496,458,462
414606,502,460,461
414607,508,459,461
414608,509,459,461
414609,509,461,463
414610,505,460,462
414611,498,462,462
414612,492,458,463
414613,485,460,461
414614,481,462,460
414615,482,460,461
414616,486,461,461
414617,494,461,459
414618,500,461,461
414619,506,461,462
414620,510,460,460
414621,513,460,462
414622,512,460,459
414623,510,460,460
414624,509,461,462
414625,512,460,461
414626,515,458,460
414627,516,459,460
414628,521,460,460
414629,523,459,461
414630,527,458,461
414631,530,460,461
414632,532,459,462
414633,533,463,460
414634,538,459,461
414635,539,457,462
414636,540,461,461
414637,536,459,462
414638,532,460,462
414639,526,459,462
414640,520,462,462
414641,519,460,461
414642,522,459,461
414643,524,458,461
414644,527,460,461
414645,528,461,460
414646,535,459,462
414647,535,461,461
414648,538,460,460
414649,540,460,461
414650,539,461,464
414651,537,461,459
414652,530,459,461
414653,521,460,459
414654,511,461,461
414655,506,460,461
414656,501,461,459
414657,498,458,461
414658,501,459,461
414659,505,458,461
414660,512,461,461
414661,513,459,462
414662,516,460,459
414663,522,459,462
414664,530,458,463
414665,538,460,461
414666,548,462,460
414667,555,461,462
414668,558,459,462
414669,561,460,460
414670,556,460,462
414671,557,459,461
414672,551,462,460
414673,547,458,461
414674,540,460,461
414675,530,461,461
414676,519,460,462
414677,508,459,461
414678,497,460,461
414679,492,460,461
414680,496,460,462
414681,502,459,461
414682,514,461,461
414683,524,461,463
414684,531,462,461
414685,534,461,462
414686,532,459,462
414687,529,457,461
414688,525,459,461
414689,523,460,461
414690,523,460,460
414691,522,459,461
414692,519,460,461
414693,518,460,462
414694,515,460,461
414695,517,459,461
414696,520,461,461
414697,527,460,461
414698,535,461,463
414699,542,457,463
414700,548,460,463
414701,554,460,461
414702,557,459,461
414703,554,459,462
414704,548,459,460
414705,538,462,461
414706,531,461,461
414707,528,460,460
414708,524,459,462
414709,523,461,462
414710,524,460,460
414711,528,459,461
414712,528,461,460
414713,532,459,462
414714,534,461,463
414715,537,460,461
414716,538,460,461
414717,540,460,461
414718,542,460,458
414719,536,459,461
414720,523,461,460
414721,516,460,460
414722,509,460,461
414723,505,460,462
414724,507,461,461
414725,510,461,461
414726,510,462,460
414727,515,462,460
414728,520,460,462
414729,524,460,462
414730,526,460,461
414731,530,460,461
414732,534,460,462
414733,533,457,458
414734,533,460,462
414735,526,459,462
414736,517,462,462
414737,512,460,462
414738,503,460,462
414739,496,460,462
414740,493,462,461
414741,493,461,459
414742,498,460,462
414743,504,460,461
414744,511,461,463
414745,516,461,461
414746,523,460,461
414747,526,458,460
414748,527,460,461
414749,519,461,459
414750,523,461,462
414751,519,460,461
414752,512,460,461
414753,504,459,460
414754,500,460,460
414755,502,460,462
414756,506,460,462
414757,507,460,463
414758,509,460,462
414759,509,461,460
414760,511,461,462
414761,514,461,463
414762,515,461,462
414763,515,459,459
414764,515,460,462
414765,515,460,460
414766,516,460,462
414767,517,457,460
414768,519,460,462
414769,522,461,462
414770,524,461,462
414771,525,461,459
414772,524,458,461
414773,520,460,460
414774,517,458,460
414775,513,459,461
414776,509,460,461
414777,505,460,460
414778,502,458,459
414779,501,460,461
414780,502,461,461
414781,502,460,460
414782,503,460,461
414783,503,459,461
414784,499,461,462
414785,496,460,462
414786,494,459,461
414787,497,456,462
414788,501,460,460
414789,506,460,461
414790,508,459,462
414791,511,458,461
414792,509,461,462
414793,511,457,461
414794,510,461,462
414795,511,460,461
414796,509,460,461
414797,505,461,462
414798,499,459,461
414799,494,461,460
414800,490,460,459
414801,483,460,459
414802,480,460,461
414803,478,458,463
414804,477,461,461
414805,475,459,461
414806,473,459,459
414807,470,460,462
414808,469,460,461
414809,469,460,460
414810,467,460,458
414811,470,460,461
414812,472,461,460
414813,471,459,462
414814,474,461,461
414815,471,460,462
414816,476,460,460
414817,477,458,462
414818,476,459,462
414819,470,461,461
414820,477,460,462
414821,479,457,461
414822,484,458,461
414823,490,459,461
414824,491,461,461
414825,494,460,462
414826,496,460,460
414827,494,460,463
414828,494,458,458
414829,489,460,462
414830,489,460,462
414831,485,459,461
414832,478,459,461
414833,480,460,462
414834,478,461,464
414835,474,461,462
414836,474,459,463
414837,473,460,461
414838,474,460,461
414839,474,459,461
414840,474,461,461
414841,477,461,460
414842,478,459,462
414843,480,459,459
414844,479,462,461
414845,482,460,459
414846,483,459,462
414847,485,459,462
414848,484,459,462
414849,485,459,462
414850,484,459,462
414851,484,460,461
414852,487,459,461
414853,483,457,461
414854,481,462,463
414855,477,459,462
414856,473,459,463
414857,469,460,462
414858,468,458,461
414859,465,459,461
414860,468,461,461
414861,467,460,460
414862,470,460,462
414863,468,460,461
414864,471,458,462
414865,471,460,461
414866,470,460,462
414867,469,459,462
414868,467,460,461
414869,470,458,460
414870,469,459,463
414871,469,459,462
414872,465,461,462
414873,463,460,462
414874,460,458,463
414875,454,459,463
414876,448,461,460
414877,443,460,460
414878,442,461,461
414879,443,460,459
414880,445,459,462
414881,447,460,461
414882,449,460,461
414883,450,461,460
414884,453,455,461
414885,457,460,461
414886,462,459,463
414887,464,461,463
414888,464,461,461
414889,467,460,460
414890,469,460,461
414891,468,461,460
414892,465,460,461
414893,468,462,462
414894,465,458,461
414895,462,459,459
414896,460,461,461
414897,457,459,463
414898,456,461,462
414899,457,460,461
414900,457,460,460
414901,455,461,461
414902,456,461,462
414903,457,461,461
414904,455,460,462
414905,456,461,461
414906,458,460,460
414907,459,460,462
414908,459,460,458
414909,459,462,460
414910,456,460,461
414911,451,461,462
414912,447,462,461
414913,446,458,462
414914,446,461,460
414915,445,461,462
414916,444,460,461
414917,443,460,463
414918,442,457,462
414919,443,457,461
414920,442,459,459
414921,442,458,461
414922,440,459,462
414923,441,461,460
414924,439,459,462
414925,439,462,461
414926,438,460,460
414927,440,461,461
414928,441,461,461
414929,443,461,460
414930,442,461,460
414931,443,460,460
414932,440,460,461
414933,438,459,463
414934,439,462,459
414935,436,459,462
414936,437,460,462
414937,438,460,460
414938,438,459,461
414939,434,460,461
414940,438,460,462
414941,437,460,462
414942,438,460,458
414943,437,460,459
414944,440,459,464
414945,439,460,462
414946,440,459,461
414947,438,459,462
414948,437,461,462
414949,437,461,461
414950,435,461,461
414951,437,460,461
414952,439,461,459
414953,442,459,462
414954,441,459,461
414955,442,459,462
414956,438,460,461
414957,430,459,461
414958,423,460,460
414959,414,461,461
414960,407,461,461
414961,404,459,462
414962,405,461,460
414963,408,461,462
414964,415,462,461
414965,421,462,459
414966,429,460,461
414967,437,459,462
414968,444,460,461
414969,445,460,462
414970,448,460,462
414971,447,461,461
414972,447,460,460
414973,443,460,462
414974,447,460,461
414975,447,461,462
414976,448,460,462
414977,448,459,462
414978,443,460,459
414979,440,462,462
414980,435,461,462
414981,433,459,461
414982,433,459,459
414983,437,459,461
414984,440,460,459
414985,444,460,461
414986,440,459,461
414987,435,460,460
414988,429,460,461
414989,423,458,461
414990,419,460,461
414991,414,460,458
414992,415,461,462
414993,415,459,461
414994,412,461,460
414995,410,460,461
414996,407,460,463
414997,407,459,462
414998,410,461,462
414999,421,462,462
415000,432,459,460
415001,437,460,462
415002,444,456,461
415003,449,458,461
415004,452,460,462
415005,455,459,462
415006,458,460,461
415007,463,460,461
415008,468,459,461
415009,473,461,459
415010,476,459,462
415011,476,460,462
415012,477,460,461
415013,476,459,462
415014,475,460,461
415015,473,461,461
415016,472,460,459
415017,466,460,460
415018,463,460,462
415019,460,460,462
415020,455,460,461
415021,453,461,460
415022,449,459,462
415023,445,461,459
415024,444,461,461
415025,444,460,461
415026,447,459,463
415027,451,461,461
415028,454,460,460
415029,457,462,461
415030,458,461,462
415031,460,462,458
415032,460,459,462
415033,462,460,461
415034,463,459,461
415035,463,460,461
415036,458,460,460
415037,452,459,462
415038,446,462,460
415039,441,460,463
415040,438,462,462
415041,437,459,460
415042,438,461,462
415043,440,459,462
415044,445,459,462
415045,448,461,462
415046,456,459,461
415047,457,457,462
415048,463,460,462
415049,464,459,463
415050,463,460,461
415051,464,460,462
415052,463,458,459
415053,463,459,459
415054,462,460,462
415055,463,460,462
415056,464,459,460
415057,464,459,463
415058,465,460,459
415059,466,462,462
415060,467,460,462
415061,467,461,461
415062,467,461,460
415063,469,459,462
415064,470,462,462
415065,469,463,462
415066,474,459,460
415067,473,461,461
415068,474,460,460
415069,479,464,460
415070,476,459,459
415071,472,460,462
415072,466,460,463
415073,459,460,460
415074,454,459,462
415075,452,460,462
415076,449,460,461
415077,446,461,462
415078,444,459,461
415079,443,459,462
415080,442,459,461
415081,444,459,462
415082,448,459,462
415083,452,461,461
415084,458,460,461
415085,466,460,459
415086,470,461,462
415087,475,459,460
415088,476,460,462
415089,477,459,461
415090,477,459,461
415091,475,458,462
415092,474,461,461
415093,468,459,462
415094,466,461,461
415095,462,458,461
415096,459,457,461
415097,459,461,461
415098,456,460,462
415099,451,461,461
415100,452,460,462
415101,449,457,461
415102,450,460,461
415103,444,458,462
415104,441,455,462
415105,438,460,462
415106,439,460,460
415107,440,461,463
415108,446,457,463
415109,453,460,462
415110,457,460,460
415111,462,460,461
415112,461,460,462
415113,463,461,462
415114,461,459,461
415115,456,461,461
415116,452,460,461
415117,444,460,461
415118,434,461,460
415119,425,458,462
415120,420,460,463
415121,417,460,461
415122,419,460,460
415123,423,461,461
415124,430,461,460
415125,437,459,458
415126,442,459,459
415127,446,459,461
415128,454,460,462
415129,460,460,462
415130,459,458,461
415131,460,461,461
415132,458,460,461
415133,453,461,462
415134,450,459,461
415135,444,462,460
415136,442,462,461
415137,441,460,460
415138,447,459,461
415139,448,459,462
415140,454,458,462
415141,452,461,460
415142,456,460,459
415143,457,460,460
415144,459,460,463
415145,461,458,461
415146,467,460,461
415147,470,458,462
415148,471,460,461
415149,472,460,462
415150,474,460,463
415151,473,460,462
415152,471,462,458
415153,471,459,462
415154,472,460,462
415155,471,461,462
415156,471,459,461
415157,471,460,462
415158,465,458,462
415159,464,461,459
415160,459,461,462
415161,455,459,462
415162,458,460,461
415163,460,459,462
415164,464,461,461
415165,469,462,461
415166,474,461,460
415167,478,459,461
415168,481,459,462
415169,482,460,461
415170,484,461,461
415171,483,459,462
415172,481,460,462
415173,475,457,463
415174,473,460,461
415175,468,458,462
415176,467,460,462
415177,461,460,460
415178,464,460,462
415179,465,461,459
415180,466,460,462
415181,469,458,462
415182,474,459,462
415183,476,461,461
415184,480,461,462
415185,484,460,461
415186,484,459,462
415187,485,460,461
415188,489,460,461
415189,488,461,461
415190,488,461,462
415191,486,458,462
415192,483,460,461
415193,482,459,462
415194,482,461,463
415195,484,457,462
415196,482,457,462
415197,479,460,460
415198,476,460,461
415199,473,460,462
415200,468,459,461
415201,463,458,462
415202,462,460,462
415203,458,460,461
415204,459,460,460
415205,457,459,462
415206,462,460,461
415207,465,457,461
415208,471,457,460
415209,479,460,458
415210,480,459,462
415211,480,460,461
415212,475,460,462
415213,466,460,461
415214,466,460,462
415215,459,460,462
415218,451,459,462
415219,450,460,461
415220,450,458,464
415221,453,460,462
415222,458,459,463
415223,463,461,461
415224,470,459,462
415224,476,459,461
415225,484,460,461
415226,488,461,460
415227,494,460,461
415228,499,461,461
415229,503,460,461
415230,503,460,460
415231,505,459,461
415232,506,460,462
415233,503,460,462
415233,505,461,462
415234,505,460,461
415235,505,459,459
415236,501,462,461
415237,501,461,461
415238,500,460,462
415239,496,461,460
415240,494,461,461
415241,493,459,460
415242,493,461,459
415243,491,460,460
415244,492,461,462
415245,492,460,461
415246,496,459,461
415247,498,459,461
415248,496,461,461
415249,495,461,462
415250,496,460,462
415251,497,462,460
415252,495,460,459
415253,496,462,459
415254,495,460,462
415255,491,462,460
415256,488,459,459
415257,483,461,462
415258,479,458,462
415259,480,460,460
415260,481,459,462
415261,479,460,461
415262,477,460,462
415263,475,461,460
415264,472,460,460
415265,468,459,459
415266,464,460,458
415267,463,460,462
415268,459,461,461
415269,458,460,462
415270,454,460,463
415271,451,460,459
415272,452,461,461
415273,452,459,462
415274,456,462,462
415275,454,462,462
415276,452,460,460
415277,446,463,461
415278,444,462,462
415279,440,460,462
415280,433,460,460
415281,432,460,461
415282,430,459,461
415283,434,458,461
415284,435,461,461
415285,441,461,463
415286,446,458,461
415287,451,460,461
415288,457,457,462
415289,462,459,462
415290,469,458,462
415291,474,460,462
415292,477,459,461
415293,478,460,462
415294,479,458,462
415295,478,460,462
415296,477,460,462
415297,477,460,461
415298,477,462,459
415299,478,461,460
415300,480,459,463
415301,482,461,462
415302,484,464,458
415303,485,461,461
415304,484,459,461
415305,484,458,461
415306,483,461,461
415307,481,460,462
415308,480,460,462
415309,481,461,460
415310,482,460,462
415311,483,460,459
415312,485,459,461
415313,489,458,459
415314,493,460,462
415315,493,457,462
415316,500,461,462
415317,502,462,459
415318,504,459,462
415319,501,460,460
415320,505,456,460
415321,505,459,460
415322,507,460,465
415323,507,459,460
415324,506,462,461
415325,510,461,462
415326,510,460,461
415327,516,460,460
415328,517,460,460
415329,518,461,461
415330,520,460,460
415331,519,460,463
415332,517,460,460
415333,516,460,459
415334,514,458,462
415335,509,459,461
415336,509,460,461
415337,501,462,460
415338,497,460,461
415339,497,460,461
415340,492,460,461
415341,493,458,462
415342,496,460,462
415343,494,461,462
415344,496,461,461
415345,493,460,461
415346,494,460,461
415347,493,461,461
415348,492,462,462
415349,488,461,462
415350,487,461,459
415351,482,460,459
415352,480,461,459
415353,474,459,461
415354,472,461,462
415355,468,459,461
415356,465,460,462
415357,458,461,462
415358,456,462,462
415359,451,460,462
415360,450,460,461
415361,453,461,460
415362,454,462,462
415363,457,460,461
415364,461,460,463
415365,461,459,464
415366,469,459,463
415367,475,460,462
415368,481,459,461
415369,487,459,462
415370,488,461,461
415371,492,460,463
415372,494,460,460
415373,493,460,461
415374,494,462,462
415375,494,460,461
415376,494,459,462
415377,492,460,459
415378,489,460,462
415379,489,458,463
415380,488,460,462
415381,487,460,461
415382,485,460,462
415383,484,462,460
415384,485,461,461
415385,486,461,463
415386,484,460,461
415387,483,459,463
415388,483,460,462
415389,479,460,460
415390,478,459,462
415391,477,460,461
415392,475,460,461
415393,475,460,460
415394,474,459,462
415395,474,461,462
415396,473,461,462
415397,474,461,461
415398,474,459,461
415399,476,460,463
415400,477,459,462
415401,475,461,462
415402,481,462,463
415403,478,460,461
415404,481,458,461
415405,479,460,463
415406,481,460,462
415407,483,460,460
415408,481,461,460
415409,477,458,462
415410,475,461,463
415411,470,460,461
415412,463,461,462
415413,457,458,462
415414,455,460,461
415415,452,462,462
415416,453,460,462
415417,454,461,462
415418,455,460,463
415419,461,460,462
415420,462,458,461
415421,468,461,462
415422,472,460,462
415423,477,460,463
415424,480,458,461
415425,484,459,461
415426,486,461,462
415427,490,457,461
415428,491,461,459
415429,487,459,463
415430,486,461,461
415431,480,459,461
415432,476,457,461
415433,472,459,462
415434,466,462,461
415435,462,461,461
415436,457,460,462
415437,457,460,462
415438,452,457,461
415439,452,459,462
415440,453,460,461
415441,454,459,462
415442,455,462,462
415443,459,461,458
415444,461,458,461
415445,462,461,461
415446,466,459,461
415447,467,460,460
415448,470,460,460
415449,470,460,462
415450,470,459,462
415451,470,457,462
415452,475,460,461
415453,476,460,461
415454,476,460,461
415455,477,464,460
415456,475,459,461
415457,473,461,460
415458,473,460,462
415459,472,459,463
415460,471,461,462
415461,470,460,462
415462,467,461,460
415463,465,459,459
415464,463,460,462
415465,464,459,461
415466,460,461,461
415467,463,460,459
415468,463,460,460
415469,463,460,462
415470,462,460,462
415471,462,460,460
415472,461,459,462
415473,458,460,461
415474,459,460,457
415475,457,461,461
415476,456,460,461
415477,454,460,459
415478,453,461,460
415479,452,460,462
415480,453,461,462
415481,454,460,461
415482,456,460,460
415483,453,460,461
415484,456,460,463
415485,457,462,460
415486,458,460,462
415487,458,461,462
415488,457,457,460
415489,459,460,462
415490,454,460,460
415491,450,460,462
415492,444,460,458
415493,440,460,460
415494,437,459,461
415495,432,460,462
415496,429,459,462
415497,426,460,461
415498,427,460,462
415499,424,459,462
415500,426,459,462
415501,428,461,462
415502,430,459,461
415503,430,462,462
415504,432,460,460
415505,428,462,462
415506,425,460,462
415507,423,459,463
415508,420,459,462
415509,419,460,461
415510,417,459,463
415511,419,458,461
415512,421,460,460
415513,425,462,463
415514,426,460,462
415515,430,461,462
415516,432,460,460
415517,434,458,462
415518,435,459,462
415519,435,456,461
415520,439,462,461
415521,439,460,461
415522,439,458,461
415523,438,461,462
415524,436,460,460
415525,437,457,461
415526,439,460,459
415527,439,461,463
415528,440,462,462
415529,440,460,460
415530,440,462,462
415531,440,460,461
415532,438,461,461
415533,439,459,463
415534,439,460,461
415535,441,460,461
415536,439,459,460
415537,437,460,462
415538,440,461,462
415539,439,459,461
415540,439,462,460
415541,440,460,461
415542,441,460,463
415543,439,460,461
415544,440,461,461
415545,441,460,462
415546,441,460,460
415547,440,460,460
415548,442,460,462
415549,441,461,459
415550,440,459,460
415551,442,461,462
415552,440,460,461
415553,437,461,458
415554,437,460,460
415555,435,460,461
415556,429,461,461
415557,429,459,462
415558,426,458,460
415559,424,462,462
415560,424,458,461
415561,423,461,461
415562,422,459,462
415563,424,460,460
415564,421,458,462
415565,422,461,459
415566,424,461,462
415567,422,461,460
415568,421,459,461
415569,424,461,462
415570,424,461,463
415571,424,462,462
415572,424,462,461
415573,422,461,461
415574,419,462,460
415575,415,457,462
415576,414,460,461
415577,410,461,463
415578,406,461,462
415579,405,461,461
415580,403,460,462
415581,402,458,462
415582,403,459,461
415583,404,461,461
415584,403,461,461
415585,405,461,461
415586,406,459,461
415587,410,461,462
415588,408,462,461
415589,413,461,461
415590,413,461,462
415591,415,458,462
415592,416,459,462
415593,414,458,462
415594,419,460,462
415595,417,462,459
415596,419,461,461
415597,418,458,461
415598,414,459,461
415599,416,462,460
415600,416,461,462
415601,415,460,462
415602,417,458,463
415603,415,461,460
415604,418,461,462
415605,418,459,461
415606,420,460,462
415607,420,460,463
415608,420,459,460
415609,420,459,461
415610,420,460,463
415611,420,460,461
415612,418,461,462
415613,417,460,462
415614,416,460,463
415615,413,461,461
415616,411,465,461
415617,409,461,462
415618,408,458,462
415619,408,460,460
415620,408,460,462
415621,409,462,461
415622,410,461,461
415623,411,460,462
415624,411,458,461
415625,416,460,462
415626,415,459,462
415627,414,458,462
415628,412,460,461
415629,411,461,462
415630,407,460,460
415631,409,459,461
415632,410,459,462
415633,407,457,462
415634,409,461,461
415635,405,458,462
415636,407,460,459
415637,408,462,461
415638,406,461,460
415639,408,461,463
415640,411,459,458
415641,412,460,462
415642,416,458,462
415643,418,460,462
415644,421,460,462
415645,421,458,462
415646,425,461,462
415647,426,459,461
415648,428,460,462
415649,428,460,462
415650,432,460,461
415651,433,460,461
415652,433,461,461
415653,433,460,460
415654,432,460,461
415655,433,460,462
415656,430,460,462
415657,431,459,460
415658,429,462,460
415659,430,461,462
415660,431,460,460
415661,429,460,462
415662,430,461,462
415663,432,462,463
415664,430,461,459
415665,433,460,462
415666,436,460,462
415667,433,460,461
415668,431,461,460
415669,429,458,462
415670,426,459,460
415671,431,461,460
415672,432,460,461
415673,431,458,460
415674,429,461,462
415675,426,459,461
415676,424,462,458
415677,422,461,460
415678,425,460,460
415679,425,461,459
415680,424,461,460
415681,427,462,461
415682,429,461,461
415683,429,458,461
415684,431,460,462
415685,433,461,463
415686,434,461,459
415687,436,459,460
415688,437,458,461
415689,440,460,462
415690,442,459,459
415691,444,462,460
415692,443,460,464
415693,441,461,461
415694,439,460,462
415695,435,461,461
415696,432,460,461
415697,430,460,453
415698,430,460,461
415699,427,461,460
415700,428,461,461
415701,431,460,462
415702,431,460,462
415703,429,461,459
415704,430,459,463
415705,431,462,462
415706,434,461,461
415707,438,458,460
415708,443,461,460
415709,448,460,461
415710,451,461,460
415711,452,460,461
415712,451,457,459
415713,448,460,460
415714,442,459,461
415715,441,460,461
415716,440,462,463
415717,440,460,461
415718,439,461,461
415719,440,460,459
415720,439,459,461
415721,441,460,461
415722,440,460,461
415723,439,458,461
415724,442,462,461
415725,444,461,461
415726,443,458,462
415727,443,460,462
415728,443,461,463
415729,441,462,461
415730,440,462,462
415731,443,459,462
415732,441,462,462
415733,438,462,461
415734,442,460,463
415735,440,461,462
415736,439,462,462
415737,437,460,462
415738,436,457,461
415739,435,461,462
415740,435,461,463
415741,433,461,462
415742,436,461,461
415743,437,460,461
415744,438,460,462
415745,439,460,463
415746,439,461,462
415747,442,460,463
415748,442,460,462
415749,444,462,461
415750,445,458,461
415751,443,460,461
415752,441,459,461
415753,441,461,462
415754,441,460,462
415755,440,460,461
415756,439,460,462
415757,437,458,461
415758,436,458,462
415759,434,461,463
415760,432,461,459
415761,432,460,459
415762,430,460,462
415763,433,460,460
415764,433,460,462
415765,432,462,460
415766,436,460,463
415767,438,460,461
415768,441,460,463
415769,441,459,460
415770,444,461,461
415771,447,461,463
415772,447,460,461
415773,450,462,458
415774,449,462,461
415775,444,458,462
415776,444,460,461
415777,438,459,461
415778,437,460,462
415779,435,459,462
415780,432,457,464
415781,434,461,463
415782,433,460,462
415783,433,461,461
415784,435,462,461
415785,435,461,461
415786,436,461,463
415787,437,461,462
415788,438,460,460
415789,440,461,461
415790,441,460,463
415791,440,460,462
415792,441,459,463
415793,441,460,462
415794,437,461,459
415795,439,461,457
415796,437,462,461
415797,439,460,461
415798,437,461,460
415799,437,458,462
415800,437,460,461
415801,436,459,460
415802,438,459,461
415803,439,460,461
415804,442,461,460
415805,446,461,461
415806,446,459,461
415807,447,460,461
415808,448,458,462
415809,450,459,462
415810,449,461,461
415811,449,461,462
415812,447,461,459
415813,449,460,460
415814,448,459,461
415815,449,461,461
415816,450,460,461
415817,449,459,462
415818,449,461,462
415819,449,461,461
415820,448,462,460
415821,450,459,461
415822,453,459,462
415823,457,461,461
415824,463,461,460
415825,467,461,460
415826,471,459,461
415827,469,462,461
415828,471,461,460
415829,469,461,462
415830,468,459,462
415831,465,460,460
415832,466,460,462
415833,463,459,461
415834,464,458,461
415835,463,460,460
415836,460,459,461
415837,461,460,461
415838,459,459,461
415839,457,460,462
415840,460,462,462
415841,460,460,458
415842,461,460,461
415843,461,460,463
415844,460,456,461
415845,460,461,462
415846,460,459,462
415847,464,461,461
415848,464,461,462
415849,467,457,463
415850,468,459,462
415851,468,460,462
415852,471,459,461
415853,470,461,461
415854,469,462,463
415855,464,462,462
415856,462,461,462
415857,457,460,461
415858,455,460,460
415859,450,460,460
415860,450,462,460
415861,449,458,461
415862,450,460,461
415863,449,460,460
415864,449,460,460
415865,449,460,462
415866,450,460,461
415867,453,460,462
415868,454,461,462
415869,454,461,461
415870,455,456,462
415871,457,460,461
415872,458,461,461
415873,461,460,461
415874,464,460,461
415875,466,461,460
415876,467,462,460
415877,466,462,461
415878,461,458,462
415879,458,459,461
415880,453,461,462
415881,446,458,461
415882,440,459,461
415883,438,457,461
415884,435,461,459
415885,437,460,462
415886,438,459,462
415887,435,460,460
415888,439,459,462
415889,440,462,460
415890,443,459,460
415891,441,460,462
415892,444,460,461
415893,443,461,461
415894,445,461,462
415895,444,461,460
415896,443,459,464
415897,445,461,461
415898,445,461,462
415899,447,460,462
415900,448,461,462
415901,443,459,461
415902,445,460,462
415903,444,460,461
415904,443,460,461
415905,441,460,461
415906,438,460,462
415907,441,461,460
415908,442,460,463
415909,444,461,462
415910,443,462,461
415911,445,461,461
415912,446,460,460
415913,443,461,461
415914,443,459,462
415915,441,460,462
415916,441,461,460
415917,441,462,461
415918,441,461,460
415919,439,459,461
415920,439,459,461
415921,439,461,460
415922,440,460,461
415923,439,461,461
415924,439,460,462
415925,442,459,461
415926,446,460,461
415927,450,461,462
415928,451,461,459
415929,451,460,461
415930,451,460,462
415931,451,459,458
415932,449,461,460
415933,447,460,461
415934,442,460,461
415935,442,460,462
415936,441,460,461
415937,439,461,461
415938,439,461,460
415939,438,460,462
415940,437,461,460
415941,438,460,462
415942,435,460,461
415943,439,460,461
415944,437,461,460
415945,439,461,462
415946,442,460,461
415947,445,460,460
415948,446,461,459
415949,450,460,462
415950,449,459,461
415951,453,461,461
415952,454,458,460
415953,453,461,463
415954,452,462,461
415955,448,461,461
415956,447,460,461
415957,444,460,462
415958,441,461,461
415959,441,461,463
415960,440,460,458
415961,439,461,461
415962,443,461,460
415963,442,460,462
415964,444,461,462
415965,447,460,462
415966,448,459,458
415967,448,461,462
415968,449,461,461
415969,451,459,462
415970,451,460,461
415971,452,461,460
415972,454,460,462
415973,453,460,463
415974,451,460,461
415975,452,460,462
415976,451,458,461
415977,451,460,462
415978,449,461,461
415979,449,458,461
415980,451,460,462
415981,454,459,460
415982,458,459,462
415983,459,461,461
415984,462,460,461
415985,463,462,461
415986,463,459,462
415987,462,459,462
415988,463,461,462
415989,462,462,461
415990,462,460,461
415991,462,459,461
415992,462,461,460
415993,461,460,459
415994,459,459,461
415995,460,462,461
415996,460,460,460
415997,461,459,459
415998,462,459,460
415999,464,459,462
416000,463,460,459
416001,460,459,462
416002,458,460,462
416003,458,460,460
416004,458,455,461
416005,458,460,460
416006,458,461,459
416007,458,460,460
416008,459,461,463
416009,458,461,460
416010,461,461,461
416011,464,459,462
416012,460,460,461
416013,463,462,460
416014,464,460,459
416015,463,461,461
416016,464,461,460
416017,461,459,462
416018,462,459,461
416019,461,462,460
416020,462,460,462
416021,461,461,462
416022,463,461,461
416023,462,460,459
416024,461,460,462
416025,461,460,461
416026,459,462,461
416027,458,462,463
416028,458,461,460
416029,462,460,460
416030,464,461,462
416031,467,463,462
416032,466,461,462
416033,466,458,461
416034,467,460,462
416035,467,462,462
416036,464,461,462
416037,458,459,461
416038,457,460,461
416039,452,461,462
416040,448,460,462
416041,446,462,460
416042,449,461,462
416043,452,460,461
416044,457,462,464
416045,466,460,461
416046,477,461,461
416047,483,460,461
416048,487,460,462
416049,496,459,461
416050,498,461,463
416051,493,460,462
416052,489,461,460
416053,478,460,462
416054,469,461,461
416055,459,460,459
1741018328618,NEW REP,,
416056,455,461,462
416057,451,463,462
416058,455,462,461
416059,461,460,461
416060,466,460,462
416061,471,461,462
416062,472,461,462
416063,473,462,460
416064,475,461,462
416065,474,458,461
416066,473,460,460
416067,471,460,462
416068,472,461,460
416069,479,462,459
416070,482,461,461
416071,486,462,462
416072,488,461,462
416073,492,460,462
416074,493,459,460
416075,495,460,460
416076,493,461,460
416077,487,462,460
416078,478,461,462
416079,467,460,461
416080,460,462,462
416081,452,459,460
416082,447,462,461
416083,452,460,462
416084,460,460,462
416085,470,461,463
416086,477,463,462
416087,485,461,460
416088,494,461,461
416089,501,461,463
416090,505,460,461
416091,499,461,461
416092,494,461,461
416093,481,460,461
416094,468,460,461
416095,457,458,462
416096,448,461,463
416097,443,461,460
416098,440,461,460
416099,441,460,458
416100,445,461,461
416101,449,462,461
416102,454,461,461
416103,464,461,462
416104,468,462,461
416105,470,461,462
416106,471,461,461
416107,473,461,462
416108,471,461,461
416109,467,460,461
416110,465,460,460
416111,460,459,461
416112,451,460,461
416113,448,461,461
416114,451,461,461
416115,455,459,463
416116,456,461,461
416117,459,461,461
416118,460,460,459
416119,460,459,460
416120,460,461,460
416121,459,460,460
416122,456,460,460
416123,454,461,461
416124,448,458,460
416125,450,460,461
416126,448,462,463
416127,447,461,462
416128,445,458,462
416129,446,460,461
416130,444,461,461
416131,444,461,461
416132,441,460,461
416133,441,461,459
416134,441,459,461
416135,440,461,462
416136,442,459,461
416137,443,461,461
416138,444,462,458
416139,449,458,462
416140,454,461,461
416141,460,460,461
416142,464,459,460
416143,467,460,461
416144,468,460,460
416145,465,459,461
416146,466,462,461
416147,462,461,462
416148,456,458,463
416149,452,463,460
416150,446,462,460
416151,440,461,461
416152,439,462,460
416153,440,460,460
416154,442,461,461
416155,441,461,460
416156,441,459,462
416157,446,460,462
416158,449,459,462
416159,453,462,461
416160,458,461,458
416161,463,461,461
416162,464,460,461
416163,463,460,460
416164,462,459,462
416165,458,461,460
416166,456,461,461
416167,451,461,461
416168,449,460,461
416169,445,459,462
416170,443,461,461
416171,439,461,461
416172,443,460,459
416173,442,461,461
416174,442,459,460
416175,441,460,461
416176,439,461,461
416177,439,460,461
416178,436,461,461
416179,431,461,460
416180,430,457,462
416181,432,461,461
416182,431,460,460
416183,431,459,462
416184,434,458,463
416185,436,461,461
416186,441,462,460
416187,445,459,462
416188,449,462,461
416189,449,460,461
416190,448,462,462
416191,446,460,461
416192,442,463,462
416193,439,460,461
416194,439,461,460
416195,440,461,460
416196,442,460,461
416197,446,461,460
416198,451,460,461
416199,457,461,462
416200,459,460,462
416201,465,461,462
416202,469,462,459
416203,470,459,461
416204,467,460,461
416205,466,460,462
416206,464,462,460
416207,462,460,460
416208,458,460,461
416209,455,459,463
416210,451,460,462
416211,446,461,462
416212,446,461,462
416213,446,462,460
416214,448,461,461
416215,448,460,461
416216,449,460,461
416217,450,462,462
416218,449,461,459
416219,444,460,461
416220,440,461,462
416221,435,461,462
416222,435,458,462
416223,435,462,462
416224,438,460,461
416225,440,460,461
416226,444,460,461
416227,451,460,463
416228,455,459,462
416229,461,460,460
416230,464,462,460
416231,467,459,461
416232,463,461,461
416233,463,462,460
416234,460,462,462
416235,458,461,461
416236,454,462,462
416237,451,459,461
416238,447,460,461
416239,444,460,460
416240,444,459,463
416241,443,461,461
416242,446,461,460
416243,449,461,459
416244,450,461,462
416245,452,459,459
416246,448,459,462
416247,440,459,460
416248,439,460,462
416249,434,460,461
416250,432,459,459
416251,431,462,461
416252,430,460,462
416253,428,460,461
416254,430,459,462
416255,431,460,461
416256,433,461,461
416257,438,461,463
416258,440,462,461
416259,440,462,460
416260,438,462,462
416261,436,463,460
416262,432,462,462
416263,434,460,461
416264,433,461,460
416265,433,462,463
