Time (ms),Bicep,Shoulder,Tricep
434692,613,459,461
434693,668,459,461
434694,714,460,458
434695,764,460,461
434696,811,459,461
434697,858,460,462
434698,902,461,462
434699,946,458,462
434700,988,459,461
434701,1023,460,461
434702,959,460,458
434703,403,462,459
434704,13,459,460
434705,6,460,459
434706,220,461,461
434707,286,458,461
434708,351,461,461
434709,412,460,462
434710,477,461,462
434711,539,460,462
434712,599,461,460
434713,659,461,460
434714,712,461,460
434715,767,458,460
434716,818,458,461
434717,865,459,461
434718,913,460,462
434719,956,461,460
434720,996,460,462
434721,1023,462,460
434722,1001,460,459
434723,423,460,462
434724,13,460,462
434725,6,459,461
434726,216,461,463
434727,285,461,461
434728,355,460,461
434729,416,459,462
434730,479,462,460
434731,545,461,460
434732,606,460,462
434733,664,459,459
434734,719,460,462
434735,771,460,462
434736,823,460,461
434737,869,460,461
434738,919,458,461
434739,968,461,462
434740,1006,461,461
434741,1023,460,462
434742,1005,459,461
434743,479,460,461
434744,15,461,463
434745,5,461,461
434746,220,461,460
434747,291,460,462
434748,358,458,462
434749,419,460,462
434750,486,460,462
434751,551,460,461
434752,613,461,460
434753,674,461,462
434754,730,461,463
434755,784,456,460
434756,836,458,461
434757,885,458,460
434758,932,459,460
434759,976,460,463
434760,1015,462,457
434761,1023,460,460
434762,1020,460,461
434763,529,460,459
434764,14,458,462
434765,5,461,462
434766,220,459,462
434767,291,460,461
434768,358,460,461
434769,425,459,462
434770,490,462,461
434771,554,459,461
434772,617,459,462
434773,674,462,462
434774,734,460,459
434775,790,460,463
434776,843,462,460
434777,891,459,460
434778,941,460,461
434779,985,461,461
434780,1023,459,460
434781,1023,459,461
434782,1023,460,459
434783,572,460,461
434784,16,459,462
434785,8,460,461
434786,221,461,460
434787,295,460,462
434788,364,459,461
434789,428,458,462
434790,492,461,461
434791,561,458,460
434792,623,460,461
434793,683,460,461
434794,741,460,460
434795,796,461,462
434796,851,461,460
434797,901,460,462
434798,949,459,462
434799,991,460,461
434800,1023,460,461
434801,1023,459,461
434802,1023,459,461
434803,597,460,462
434804,32,460,462
434805,6,460,460
434806,224,461,462
434807,295,461,461
434808,365,462,460
434809,432,461,461
434810,499,461,459
434811,565,461,463
434812,629,461,462
434813,691,459,461
434814,749,460,461
434815,803,461,460
434816,858,460,459
434817,908,460,462
434818,955,460,460
434819,999,459,463
434820,1023,460,462
434821,1023,460,463
434822,1023,460,462
434823,639,459,459
434824,61,460,463
434825,7,460,462
434826,224,462,463
434827,301,462,460
434828,368,460,462
434829,438,460,462
434830,503,461,461
434831,572,460,461
434832,633,459,460
434833,695,459,460
434834,752,460,463
434835,812,461,461
434836,865,460,461
434837,915,460,460
434838,965,461,463
434839,1010,458,460
434840,1023,461,461
434841,1023,461,461
434842,1023,461,461
434843,693,459,463
434844,78,460,462
434845,7,460,462
434846,223,461,461
434847,301,460,460
434848,372,461,461
434849,439,459,461
434850,505,460,462
434851,573,460,463
434852,637,460,459
434853,700,462,460
434854,758,461,461
434855,816,460,460
434856,869,460,462
434857,921,461,462
434858,969,461,461
434859,1015,461,461
434860,1023,462,460
434861,1023,459,462
434862,1023,462,462
434863,744,460,462
434864,107,460,461
434865,7,460,461
434866,226,461,460
434867,300,460,463
434868,369,462,461
434869,438,460,462
434870,506,462,459
434871,573,459,462
434872,640,460,461
434873,699,459,459
434874,761,460,461
434875,817,460,461
434876,871,461,460
434877,924,460,459
434878,970,460,459
434879,1019,460,459
434880,1023,462,461
434881,1023,457,460
434882,1020,475,466
434883,743,461,462
434884,133,461,462
434885,10,460,464
434886,223,461,462
434887,297,462,460
434888,371,460,462
434889,439,461,461
434890,508,461,462
434891,577,461,463
434892,641,461,461
434893,703,461,462
434894,762,462,461
434895,818,462,461
434896,874,459,462
434897,927,461,462
434898,973,460,462
434899,1022,458,461
434900,1023,459,461
434901,1023,479,467
434902,744,459,463
434903,813,464,463
434904,142,463,462
434905,8,461,461
434906,233,461,463
434907,300,461,459
434908,371,461,461
434909,443,460,463
434910,510,461,462
434911,576,461,461
434912,644,461,462
434913,707,460,462
434914,764,461,461
434915,820,460,461
434916,877,462,461
434917,930,461,459
434918,980,458,463
434919,1023,460,461
434920,1023,459,463
434921,1023,484,465
434922,747,461,462
434923,864,462,461
434924,172,460,464
434925,9,461,462
434926,220,462,463
434927,299,461,460
434928,374,460,463
434929,442,459,462
434930,512,462,459
434931,576,460,460
434932,645,461,462
434933,707,461,460
434934,769,461,461
434935,824,462,462
434936,878,459,462
434937,934,460,462
434938,983,458,460
434939,1023,462,460
434940,1023,460,459
434941,1023,485,463
434942,744,460,461
434943,878,461,462
434944,198,460,462
434945,10,461,462
434946,196,460,463
434947,303,461,461
434948,377,461,459
434949,445,462,459
434950,514,458,461
434951,583,461,462
434952,650,461,460
434953,709,461,462
434954,775,461,462
434955,828,459,462
434956,884,458,462
434957,934,461,459
434958,989,458,463
434959,1023,460,462
434960,1023,460,462
434961,1023,482,466
434962,741,461,461
434963,933,461,461
434964,217,458,461
434965,11,460,462
434966,212,462,462
434967,305,461,462
434968,379,461,460
434969,450,459,459
434970,518,461,462
434971,587,462,462
434972,652,461,461
434973,716,460,461
434974,776,462,462
434975,831,461,460
434976,888,460,461
434977,942,459,462
434978,991,462,460
434979,1023,461,462
434980,1023,459,462
434981,1023,479,466
434982,736,462,462
434983,980,461,461
434984,240,462,463
434985,11,459,463
434986,194,461,461
434987,305,462,463
434988,379,459,462
434989,449,459,462
434990,519,461,463
434991,588,461,461
434992,651,460,462
434993,713,461,460
434994,775,459,461
434995,834,460,461
434996,886,461,460
434997,939,457,459
434998,991,460,462
434999,1023,460,462
435000,1023,457,462
435001,1023,482,466
435002,736,460,460
435003,1008,460,462
435004,248,460,462
435005,10,462,459
435006,203,459,462
435007,306,462,461
435008,378,459,462
435009,444,460,459
435010,517,460,462
435011,584,462,462
435012,653,461,462
435013,712,460,461
435014,773,461,461
435015,828,460,461
435016,888,461,461
435017,944,461,464
435018,989,458,462
435019,1023,458,461
435020,1023,461,461
435021,1023,482,463
435022,736,460,461
435023,1023,460,461
435024,292,460,463
435025,14,459,463
435026,220,460,463
435027,333,462,462
435028,406,459,463
435029,477,460,461
435030,545,460,462
435031,611,462,463
435032,676,460,462
435033,734,461,462
435034,797,458,462
435035,851,460,461
435036,904,461,459
435037,957,461,461
435038,1007,460,462
435039,1023,460,459
435040,1023,459,461
435041,917,462,463
435042,737,459,462
435043,1023,462,461
435044,337,461,462
435045,16,462,462
435046,255,460,461
435047,355,461,461
435048,425,461,462
435049,495,461,462
435050,564,459,461
435051,629,459,461
435052,692,460,462
435053,750,460,460
435054,811,459,460
435055,866,460,462
435056,917,461,461
435057,967,460,458
435058,1018,461,461
435059,1023,461,461
435060,1023,463,464
435061,817,462,462
435062,739,461,461
435063,1023,483,466
435064,360,462,463
435065,34,461,464
435066,233,462,462
435067,367,461,463
435068,438,460,462
435069,503,461,462
435070,572,460,462
435071,637,460,462
435072,696,463,459
435073,754,461,464
435074,813,462,460
435075,869,460,461
435076,925,461,463
435077,969,461,464
435078,1020,461,461
435079,1023,461,459
435080,1023,480,466
435081,810,461,460
435082,739,458,460
435083,962,465,465
435084,385,462,462
435085,27,459,462
435086,228,461,463
435087,364,461,462
435088,434,462,462
435089,503,461,462
435090,570,460,462
435091,634,461,463
435092,696,461,463
435093,754,461,462
435094,813,461,459
435095,864,460,461
435096,918,462,461
435097,972,460,463
435098,1017,460,462
435099,1023,461,462
435100,1023,467,466
435101,888,461,460
435102,738,458,461
435103,1023,479,467
435104,400,462,464
435105,17,462,462
435106,226,461,463
435107,350,461,461
435108,419,461,464
435109,490,462,461
435110,560,460,462
435111,626,459,462
435112,686,461,460
435113,746,459,462
435114,803,461,461
435115,862,459,463
435116,914,461,463
435117,964,462,462
435118,1012,462,460
435119,1023,459,461
435120,1023,463,464
435121,910,461,462
435122,739,461,460
435123,936,466,463
435124,396,462,463
435125,17,460,461
435126,186,462,463
435127,330,460,461
435128,399,460,464
435129,466,460,463
435130,531,460,462
435131,593,461,459
435132,659,458,462
435133,723,459,462
435134,780,462,461
435135,840,462,462
435136,895,460,461
435137,945,461,462
435138,991,460,461
435139,1023,461,461
435140,1023,463,461
435141,1023,482,466
435142,738,460,460
435143,1023,484,465
435144,392,462,462
435145,17,463,463
435146,132,462,460
435147,310,462,462
435148,380,463,463
435149,449,462,462
435150,515,460,460
435151,578,461,461
435152,643,462,462
435153,704,459,461
435154,763,460,462
435155,821,460,462
435156,872,461,463
435157,919,460,460
435158,970,461,462
435159,1015,461,462
435160,1023,457,461
435161,1023,462,463
435162,1021,475,463
435163,1023,462,463
435164,390,460,463
435165,15,462,462
435166,102,459,461
435167,294,462,463
435168,363,460,461
435169,429,461,462
435170,496,461,462
435171,563,462,464
435172,627,460,461
435173,685,461,460
435174,745,460,461
435175,803,461,462
435176,856,461,462
435177,907,460,463
435178,953,461,462
435179,999,460,461
435180,1023,460,461
435181,1023,460,461
435182,1023,485,464
435183,1023,461,463
435184,387,461,462
435185,16,461,462
435186,101,461,461
435187,291,461,462
435188,364,459,462
435189,429,461,460
435190,494,461,461
435191,557,461,462
435192,617,461,459
435193,675,459,462
435194,732,459,462
435195,783,460,462
435196,836,461,460
435197,886,461,460
435198,935,460,462
435199,978,461,461
435200,1022,461,461
435201,1023,458,461
435202,1023,469,463
435203,1023,463,463
435204,400,459,462
435205,17,461,462
435206,104,460,461
435207,293,461,461
435208,365,462,462
435209,437,460,462
435210,502,460,462
435211,570,460,459
435212,629,460,463
435213,690,461,461
435214,746,462,461
435215,801,462,463
435216,853,461,462
435217,903,462,459
435218,952,461,461
435219,998,461,459
435220,1023,460,461
435221,1023,461,461
435222,1023,480,467
435223,1023,476,466
435224,414,461,463
435225,18,461,463
435226,110,462,462
435227,278,461,462
435228,345,459,461
435229,412,460,462
435230,475,461,461
435231,541,460,462
435232,604,461,462
435233,661,461,461
435234,719,460,464
435235,776,461,462
435236,830,461,462
435237,884,458,462
435238,933,461,462
435239,983,460,461
435240,1023,459,459
435241,1023,460,460
435242,1023,478,464
435243,1023,459,463
435244,412,462,463
435245,16,461,462
435246,45,461,462
435247,251,460,462
435248,326,458,461
435249,399,460,463
435250,467,459,462
435251,538,460,463
435252,603,460,462
435253,664,460,460
435254,725,462,463
435255,780,461,461
435256,833,461,461
435257,884,460,462
435258,932,461,462
435259,975,460,460
435260,1019,460,461
435261,1023,461,459
435262,1023,459,461
435263,1009,459,462
435264,384,458,461
435265,14,460,462
435266,6,460,460
435267,223,461,461
435268,295,460,462
435269,364,459,461
435270,432,460,461
435271,503,461,462
435272,566,461,461
435273,635,460,462
435274,696,461,460
435275,758,461,460
435276,812,460,462
435277,866,460,462
435278,916,459,462
435279,965,458,460
435280,1014,458,462
435281,1023,460,463
435282,1023,459,461
435283,970,460,462
435284,343,461,463
435285,14,462,462
435286,3,459,461
435287,193,461,461
435288,268,462,461
435289,336,460,460
435290,407,460,463
435291,471,461,461
435292,540,460,462
435293,603,460,463
435294,663,460,460
435295,723,458,462
435296,781,458,462
435297,837,460,461
435298,888,462,461
435299,941,460,461
435300,990,460,462
435301,1023,459,462
435302,1023,461,462
435303,848,460,461
435304,239,460,462
435305,10,460,461
435306,4,460,462
435307,82,461,461
435308,207,462,463
435309,283,459,460
435310,356,461,462
435311,426,460,462
435312,496,461,461
435313,569,460,463
435314,644,460,461
435315,710,458,461
435316,782,461,461
435317,847,461,462
435318,914,461,462
435319,971,460,461
435320,1023,461,460
435321,1023,459,460
435322,1023,476,467
435323,706,463,463
435324,170,461,461
435325,10,462,463
435326,3,461,463
435327,2,460,463
435328,187,461,461
435329,273,458,462
435330,353,461,463
435331,435,461,461
435332,513,462,460
435333,594,460,462
435334,668,461,462
435335,739,461,462
435336,810,460,461
435337,875,459,461
435338,936,460,463
435339,996,459,462
435340,1023,461,462
435341,1023,481,466
435342,736,460,462
435343,654,460,461
435344,122,460,462
435345,9,460,462
435346,3,460,462
435347,1,460,463
435348,196,461,461
435349,295,461,462
435350,387,459,460
435351,475,462,461
435352,564,460,461
435353,649,460,461
435354,731,461,462
435355,811,460,461
435356,887,461,462
435357,962,458,461
435358,1023,460,460
435359,1023,459,461
435360,774,461,462
435361,743,459,461
435362,752,465,469
435363,698,461,463
435364,197,459,462
435365,3,461,461
435366,4,460,462
435367,2,461,462
435368,203,460,462
435369,311,459,462
435370,411,460,463
435371,504,461,458
435372,598,460,461
435373,691,462,461
435374,780,460,460
435375,861,459,461
435376,945,457,461
435377,1022,460,461
435378,1023,459,462
435379,736,460,462
435380,747,459,461
435381,755,481,479
435382,754,480,478
435383,791,460,462
435384,267,461,462
435385,11,462,462
435386,5,462,459
435387,1,461,463
435388,222,461,460
435389,337,460,462
435390,443,456,461
435391,547,461,463
435392,645,457,462
435393,734,459,461
435394,825,458,461
435395,911,460,461
435396,997,460,460
435397,1023,460,458
435398,760,461,462
435399,746,459,461
435400,754,481,478
435401,754,481,477
435402,753,480,479
435403,924,459,458
435404,358,461,461
435405,12,460,461
435406,5,460,463
435407,1,462,461
435408,237,459,462
435409,354,457,461
435410,460,460,459
435411,567,459,460
435412,677,459,462
435413,778,461,460
435414,873,458,462
435415,964,460,461
435416,1023,459,461
435417,1023,476,462
435418,744,459,461
435419,754,482,477
435420,753,481,478
435421,755,481,479
435422,755,482,478
435423,1021,459,462
435424,447,461,461
435425,19,460,461
435426,6,460,460
435427,3,459,460
435428,243,460,461
435429,357,461,461
435430,466,457,461
435431,567,461,460
435432,676,459,461
435433,778,460,459
435434,878,460,461
435435,974,459,459
435436,1023,459,461
435437,788,460,461
435438,747,458,460
435439,755,482,478
435440,754,479,479
435441,754,482,478
435442,755,481,479
435443,911,463,463
435444,637,462,462
435445,138,461,463
435446,10,461,462
435447,76,461,462
435448,313,461,462
435449,422,461,461
435450,530,459,463
435451,638,461,461
435452,740,460,462
435453,833,463,460
435454,928,459,463
435455,1015,460,461
435456,1023,475,466
435457,739,460,460
435458,751,468,471
435459,755,482,478
435460,754,482,479
435461,754,479,480
435462,754,481,478
435463,752,464,464
435464,819,462,462
435465,241,460,459
435466,11,458,460
435467,178,460,461
435468,396,459,459
435469,509,458,461
435470,613,458,462
435471,713,460,460
435472,809,458,460
435473,893,459,460
435474,982,461,459
435475,1023,459,460
435476,931,462,464
435477,745,460,461
435478,754,480,479
435479,754,480,480
435480,754,480,478
435481,755,479,478
435482,755,482,478
435483,755,480,478
435484,1023,461,461
435485,375,461,463
435486,196,461,461
435487,497,458,462
435488,603,460,459
435489,700,458,460
435490,794,458,461
435491,880,460,460
435492,965,461,460
435493,1023,459,461
435494,1023,483,465
435495,741,459,459
435496,752,471,473
435497,755,480,477
435498,754,481,480
435499,753,481,479
435500,754,482,478
435501,754,481,477
435502,755,481,480
435503,754,482,479
435504,736,461,463
435505,471,460,462
435506,376,458,461
435507,665,461,461
435508,760,457,461
435509,845,460,458
435510,926,461,462
435511,1005,460,462
435512,1023,461,461
435513,840,462,460
435514,746,460,460
435515,754,479,478
435516,754,483,476
435517,754,481,479
435518,754,481,480
435519,754,482,478
435520,754,482,479
435521,753,479,478
435522,755,481,479
435523,755,481,478
435524,748,459,462
435525,520,457,463
435526,462,461,461
435527,719,459,461
435528,801,460,461
435529,880,458,461
435530,956,460,460
435531,1023,458,461
435532,1023,457,461
435533,748,460,462
435534,745,457,462
435535,753,475,475
435536,754,480,479
435537,754,481,478
435538,753,481,479
435539,754,480,478
435540,754,479,477
435541,754,482,478
435542,755,482,479
435543,755,480,479
435544,752,462,462
435545,538,459,461
435546,392,461,461
435547,664,460,460
435548,741,460,461
435549,809,459,462
435550,880,458,460
435551,947,460,460
435552,1010,460,459
435553,1023,459,461
435554,1020,472,461
435555,741,457,460
435556,748,457,461
435557,753,481,478
435558,754,481,478
435559,755,481,479
435560,755,482,479
435561,753,480,479
435562,754,481,478
435563,754,482,480
435564,748,461,461
435565,483,460,460
435566,278,461,460
435567,554,459,461
435568,617,461,461
435569,690,460,461
435570,760,460,461
435571,828,460,461
435572,890,460,458
435573,953,458,460
435574,1010,459,459
435575,1023,457,459
435576,1023,481,465
435577,737,460,461
435578,746,459,460
435579,752,469,469
435580,754,481,480
435581,754,481,480
435582,754,482,480
435583,755,482,480
435584,748,456,461
435585,459,460,460
435586,202,460,459
435587,439,459,462
435588,543,460,458
435589,617,460,460
435590,685,461,461
435591,747,460,458
435592,808,460,462
435593,867,459,461
435594,923,460,459
435595,981,459,460
435596,1023,460,460
435597,1023,461,461
435598,945,462,465
435599,739,460,460
435600,748,460,459
435601,752,476,476
435602,755,482,479
435603,753,481,481
435604,749,462,462
435605,477,460,462
435606,206,461,462
435607,436,460,462
435608,540,460,461
435609,609,460,462
435610,678,460,461
435611,743,458,460
435612,803,459,460
435613,864,459,461
435614,919,459,459
435615,976,459,460
435616,1023,460,461
435617,1023,458,460
435618,1005,471,464
435619,738,461,462
435620,746,460,461
435621,751,467,469
435622,753,480,477
435623,754,482,477
435624,754,474,462
435625,517,459,462
435626,282,461,461
435627,531,460,460
435628,580,461,460
435629,651,460,462
435630,712,458,462
435631,781,460,460
435632,845,460,461
435633,903,460,459
435634,962,460,461
435635,1020,459,461
435636,1023,459,460
435637,1023,485,463
435638,736,460,462
435639,745,459,461
435640,751,466,467
435641,754,481,479
435642,754,481,480
435643,754,482,478
435644,754,481,480
435645,610,461,462
435646,363,460,460
435647,618,462,461
435648,678,461,463
435649,736,461,463
435650,797,459,462
435651,854,459,460
435652,909,460,461
435653,964,461,460
435654,1021,458,460
435655,1023,460,457
435656,1023,460,462
435657,737,459,462
435658,746,458,460
435659,752,465,468
435660,753,481,477
435661,754,478,478
435662,754,482,477
435663,754,481,480
435664,755,481,479
435665,727,460,462
435666,493,460,462
435667,737,462,462
435668,793,461,461
435669,848,460,463
435670,903,458,461
435671,957,460,462
435672,1010,460,460
435673,1023,460,459
435674,1023,459,461
435675,736,461,462
435676,743,460,461
435677,750,462,462
435678,755,481,480
435679,754,481,480
435680,754,480,479
435681,755,482,478
435682,754,480,479
435683,753,480,478
435684,754,482,478
435685,977,461,461
435686,820,461,459
435687,1023,461,460
435688,1023,460,461
435689,1023,462,463
435690,736,460,461
435691,745,460,459
435692,750,462,460
435693,755,481,478
435694,754,481,480
435695,754,479,479
435696,754,480,480
435697,754,481,479
435698,754,482,479
435699,753,481,480
435700,756,481,480
435701,754,480,479
435702,754,480,477
435703,754,481,479
435704,753,480,478
435705,754,459,461
435706,754,480,478
435707,754,479,479
435708,754,480,477
435709,754,482,477
435710,754,481,478
435711,755,481,477
435712,754,479,479
435713,754,481,477
435714,754,481,479
435715,754,481,480
435716,754,481,478
435717,754,483,478
435718,755,480,479
435719,755,483,477
435720,755,481,477
435721,754,480,479
435722,754,481,479
435723,754,482,479
435724,755,482,480
435725,754,479,479
435726,754,482,477
435727,754,479,480
435728,753,480,477
435729,755,481,476
435730,754,479,478
435731,754,480,478
435732,754,481,479
435733,754,480,479
435734,755,480,477
435735,754,478,479
435736,754,479,478
435737,754,480,477
435738,754,479,478
435739,754,479,479
435740,754,479,478
435741,754,481,479
435742,755,481,480
435743,755,483,477
435744,755,480,479
435745,754,478,477
435746,754,481,478
435747,753,479,479
435748,755,481,480
435749,756,480,479
435750,754,481,478
435751,754,481,479
435752,754,482,479
435753,754,481,477
435754,755,480,478
435755,755,479,478
435756,753,480,479
435757,755,481,478
435758,755,480,478
435759,754,482,478
435760,753,480,480
435761,754,481,479
435762,754,481,478
435763,754,482,479
435764,755,482,479
435765,754,481,478
435766,754,481,479
435767,754,479,479
435768,755,482,479
435769,755,480,478
435770,754,480,479
435771,755,482,478
435772,755,480,479
435773,755,482,478
435774,754,481,477
435775,754,482,477
435776,755,481,479
435777,754,482,477
435778,755,481,479
435779,754,481,479
435780,754,480,478
435781,754,480,477
435782,755,481,479
435783,754,480,478
435784,754,481,475
435785,754,478,479
435786,754,475,475
435787,753,474,473
435788,752,474,471
435789,753,473,474
435790,752,476,476
435791,753,480,478
435792,754,480,478
435793,755,481,478
435794,755,479,480
435795,753,482,477
435796,754,481,480
435797,754,480,480
435798,753,479,477
435799,753,474,477
435800,753,471,471
435801,752,469,469
435802,753,467,467
435803,752,468,466
435804,751,466,466
435805,752,467,465
435806,751,463,466
435807,752,464,464
435808,751,466,463
435809,752,465,464
435810,751,465,464
435811,752,463,465
435812,751,463,466
435813,750,462,461
435814,751,462,464
435815,750,462,464
435816,750,462,462
435817,751,459,461
435818,750,457,462
435819,750,461,462
435820,751,460,464
435821,751,461,461
435822,749,461,462
435823,750,459,458
435824,749,459,461
435825,746,457,461
435826,746,459,459
435827,744,460,461
435828,743,460,461
435829,741,460,461
435830,741,458,460
435831,740,459,460
435832,739,460,462
435833,739,459,462
435834,740,461,462
435835,740,460,461
435836,741,459,461
435837,742,460,462
435838,741,460,460
435839,740,462,461
435840,738,460,460
435841,736,460,460
435842,736,459,461
435843,791,459,462
435844,923,463,464
435845,1023,479,466
435846,1023,480,464
435847,1023,486,468
435848,1023,486,464
435849,1023,481,467
435850,1023,479,466
435851,1023,482,465
435852,1023,475,466
435853,1023,476,465
435854,1023,471,464
435855,1023,464,462
435856,1023,464,464
435857,1023,462,461
435858,1023,460,462
435859,1023,460,461
435860,1023,460,463
435861,1023,460,459
435862,1023,462,463
435863,1019,461,462
435864,1005,461,461
435865,991,461,461
435866,958,460,461
435867,956,461,463
435868,953,462,460
435869,951,459,462
435870,950,459,462
435871,941,461,458
435872,938,462,462
435873,937,462,463
435874,934,458,461
435875,934,460,461
435876,927,461,463
435877,924,460,461
435878,917,461,460
435879,911,459,460
435880,900,461,462
435881,892,461,462
435882,883,462,461
435883,875,462,460
435884,867,458,460
435885,855,458,461
435886,780,461,463
435887,794,462,462
435888,786,459,460
435889,772,458,462
435890,762,460,461
435891,751,461,461
435892,743,460,461
435893,737,461,461
435894,737,460,461
435895,739,462,460
435896,745,460,461
435897,746,460,461
435898,743,459,461
435899,744,460,463
435900,738,461,461
435901,731,462,462
435902,722,460,461
435903,712,458,463
435904,703,462,462
435905,699,461,462
435906,626,461,461
435907,648,460,463
435908,643,461,461
435909,637,461,461
435910,634,460,463
435911,629,462,461
435912,625,461,460
435913,626,460,462
435914,624,462,462
435915,619,461,459
435916,614,462,458
435917,615,459,461
435918,613,461,461
435919,609,460,462
435920,604,461,463
435921,596,462,462
435922,589,461,462
435923,584,461,463
435924,576,460,463
435925,572,461,462
435926,556,462,461
435927,552,461,462
435928,547,460,463
435929,538,461,462
435930,530,459,462
435931,526,460,462
435932,519,460,461
435933,512,458,460
435934,509,460,464
435935,505,461,461
435936,500,462,461
435937,496,459,462
435938,491,460,462
435939,487,461,462
435940,481,462,462
435941,477,462,461
435942,472,461,462
435943,464,462,459
435944,462,461,461
435945,458,461,461
435946,453,461,463
435947,448,462,462
435948,448,459,461
435949,444,462,462
435950,443,460,462
435951,440,460,462
435952,435,459,462
435953,432,460,461
435954,429,460,462
435955,426,460,460
435956,424,461,461
435957,419,460,462
435958,422,460,461
435959,421,460,462
435960,420,460,462
435961,416,462,460
435962,413,460,461
435963,408,462,461
435964,403,461,462
435965,398,462,463
435966,393,460,460
435967,393,462,462
435968,393,461,461
435969,389,463,462
435970,389,460,461
435971,388,462,463
435972,386,461,464
435973,384,461,461
435974,384,460,462
435975,381,462,462
435976,380,461,459
435977,384,460,460
435978,382,461,460
435979,382,462,459
435980,379,460,460
435981,374,460,460
435982,367,461,462
435983,363,459,461
435984,357,458,462
435985,351,460,462
435986,348,458,461
435987,345,460,462
435988,343,460,461
435989,342,458,461
435990,339,459,462
435991,339,461,461
435992,338,457,462
435993,336,459,460
435994,337,460,462
435995,337,461,461
435996,336,460,461
435997,337,459,461
435998,336,461,461
435999,333,459,461
436000,329,461,461
436001,324,460,461
436002,323,459,462
436003,319,460,460
436004,315,460,461
436005,312,459,461
436006,310,461,462
436007,304,461,459
436008,302,460,459
436009,302,461,461
436010,296,462,458
436011,296,461,462
436012,294,459,461
436013,295,459,460
436014,295,461,462
436015,292,460,462
436016,293,459,459
436017,292,460,462
436018,291,458,461
436019,289,462,461
436020,289,460,461
436021,286,460,461
436022,284,459,462
436023,281,460,461
436024,276,460,461
436025,271,459,460
436026,268,460,461
436027,263,461,460
436028,259,459,461
436029,258,460,462
436030,257,461,461
436031,256,458,461
436032,257,459,459
436033,256,459,459
436034,257,458,460
436035,259,460,461
436036,259,461,461
436037,258,460,461
436038,254,459,461
436039,257,461,461
436040,256,462,459
436041,255,457,460
436042,254,461,462
436043,253,460,461
436044,251,460,461
436045,248,460,461
436046,245,461,460
436047,243,459,460
436048,239,460,457
436049,239,461,460
436050,236,460,460
436051,236,460,461
436052,236,461,461
436053,237,460,461
436054,238,460,461
436055,240,460,460
436056,240,460,460
436057,241,461,460
436058,240,461,460
436059,243,462,461
436060,245,458,460
436061,241,460,460
436062,240,460,460
436063,237,458,460
436064,234,460,461
436065,231,461,459
436066,227,460,462
436067,224,460,458
436068,221,460,461
436069,219,461,459
436070,219,459,461
436071,216,459,461
436072,216,461,461
436073,217,461,461
436074,219,460,461
436075,219,461,461
436076,220,459,462
436077,222,460,460
436078,225,461,461
436079,223,458,460
436080,223,458,459
436081,224,460,464
436082,219,460,462
436083,217,460,462
436084,216,461,462
436085,212,461,457
436086,207,461,460
436087,206,459,462
436088,202,455,460
436089,200,460,460
436090,197,461,460
436091,196,460,461
436092,197,462,461
436093,197,461,461
436094,195,461,461
436095,198,461,459
436096,200,460,460
436097,201,459,461
436098,202,459,461
436099,204,459,462
436100,204,459,462
436101,202,461,460
436102,201,460,462
436103,195,460,462
436104,193,461,462
436105,191,461,458
436106,187,461,460
436107,183,461,460
436108,179,460,459
436109,178,460,461
436110,177,460,459
436111,176,460,462
436112,174,460,462
436113,175,460,461
436114,175,460,460
436115,175,461,463
436116,178,461,460
436117,177,460,459
436118,181,460,461
436119,182,462,461
436120,181,460,462
436121,181,462,462
436122,180,460,461
436123,178,460,462
436124,175,461,460
436125,172,460,461
436126,169,460,461
436127,164,461,460
436128,163,458,462
436129,160,461,461
436130,158,461,464
436131,159,459,461
436132,158,461,460
436133,159,461,461
436134,162,461,461
436135,160,461,461
436136,163,461,461
436137,163,460,457
436138,164,461,460
436139,164,461,459
436140,162,461,461
436141,163,461,460
436142,160,460,461
436143,161,461,460
436144,160,461,462
436145,160,460,461
436146,159,461,461
436147,156,460,461
436148,156,460,462
436149,154,461,463
436150,154,460,460
436151,153,461,463
436152,153,462,460
436153,155,461,463
436154,157,458,463
436155,161,460,461
436156,161,461,462
436157,163,462,462
436158,163,460,461
436159,164,461,461
436160,166,462,463
436161,163,462,463
436162,162,462,460
436163,162,461,461
436164,155,461,463
436165,152,460,461
436166,147,459,461
436167,143,462,462
436168,140,461,459
436169,138,462,461
436170,138,462,460
436171,139,459,462
436172,139,460,462
436173,141,459,462
436174,142,460,462
436175,145,460,460
436176,146,460,462
436177,146,461,462
436178,143,461,461
436179,145,461,462
436180,145,460,462
436181,143,461,462
436182,142,460,462
436183,142,461,462
436184,138,460,461
436185,138,458,463
436186,137,461,461
436187,134,460,462
436188,129,461,459
436189,129,460,461
436190,129,460,462
436191,128,462,461
436192,126,460,462
436193,126,461,462
436194,127,460,459
436195,130,460,462
436196,130,461,461
436197,132,460,462
436198,132,460,462
436199,129,460,462
436200,128,460,463
436201,131,460,462
436202,127,459,462
436203,123,461,459
436204,120,460,462
436205,117,461,463
436206,112,460,462
436207,107,459,461
436208,105,460,463
436209,101,460,463
436210,99,461,462
436211,97,457,462
436212,97,460,462
436213,99,461,463
436214,100,459,462
436215,99,461,459
436216,100,460,461
436217,100,460,462
436218,95,461,463
436219,97,459,461
436220,96,460,461
436221,94,462,462
436222,94,461,462
436223,95,463,461
436224,92,460,462
436225,95,459,462
436226,90,460,463
436227,90,461,462
436228,87,461,462
436229,85,459,464
436230,83,461,463
436231,80,457,462
436232,78,460,463
436233,79,460,462
436234,81,461,460
436235,83,460,462
436236,88,460,462
436237,91,461,462
436238,94,460,462
436239,96,460,463
436240,97,461,462
436241,96,461,462
436242,96,459,462
436243,94,461,462
436244,92,457,463
436245,88,460,462
436246,86,460,461
436247,85,461,462
436248,84,460,462
436249,85,460,462
436250,86,460,462
436251,87,460,461
436252,88,458,462
436253,90,459,462
436254,90,461,461
436255,93,460,461
436256,95,460,462
436257,98,462,463
436258,100,461,462
436259,103,461,462
436260,104,462,459
436261,105,460,461
436262,102,461,463
436263,100,460,462
436264,97,460,463
436265,99,460,462
436266,93,460,459
436267,93,458,462
436268,89,461,463
436269,85,458,461
436270,83,462,462
436271,81,461,463
436272,80,460,460
436273,81,462,462
436274,83,460,462
436275,85,461,461
436276,87,461,459
436277,94,461,462
436278,98,460,462
436279,99,460,462
436280,101,461,461
436281,101,458,462
436282,100,461,463
436283,97,461,461
436284,93,459,461
436285,89,461,461
436286,86,462,461
436287,82,461,461
436288,77,460,461
436289,75,462,461
436290,69,459,461
436291,65,462,461
436292,62,461,463
436293,58,462,460
436294,57,461,463
436295,62,460,462
436296,65,461,462
436297,68,459,461
436298,74,460,461
436299,78,460,461
436300,83,459,462
436301,84,459,461
436302,88,462,461
436303,89,461,461
436304,89,461,462
436305,88,461,463
436306,82,459,459
436307,81,462,460
436308,76,461,464
436309,80,461,461
436310,79,461,462
436311,80,461,463
436312,83,461,462
436313,90,460,462
436314,92,460,462
436315,99,460,462
436316,103,460,461
436317,108,461,462
436318,114,461,461
436319,118,459,462
436320,118,461,463
436321,119,461,462
436322,118,460,464
436323,115,462,460
436324,110,460,461
436325,106,462,461
436326,101,460,464
436327,96,461,462
436328,98,460,461
436329,95,460,460
436330,97,460,463
436331,98,459,462
436332,100,459,462
436333,103,460,462
436334,105,460,461
436335,110,461,461
436336,116,459,462
436337,120,461,463
436338,122,461,463
436339,125,460,461
436340,126,462,462
436341,126,461,463
436342,124,461,460
436343,118,459,461
436344,115,461,461
436345,108,459,462
436346,103,461,462
436347,101,459,463
436348,98,461,461
436349,98,459,462
436350,101,459,462
436351,102,460,462
436352,97,462,460
436353,97,461,462
436354,97,459,462
436355,98,461,462
436356,98,459,460
436357,99,461,461
436358,108,461,463
436359,111,460,462
436360,113,462,461
436361,118,462,462
436362,120,460,463
436363,121,460,462
436364,119,456,462
436365,116,459,462
436366,112,462,463
436367,110,461,460
436368,105,461,461
436369,101,462,464
436370,100,461,460
436371,100,461,462
436372,101,460,462
436373,106,460,462
436374,111,460,464
436375,114,460,462
436376,118,460,462
436377,122,460,464
436378,127,459,463
436379,126,460,458
436380,127,460,462
436381,127,459,462
436382,128,461,462
436383,127,461,462
436384,125,460,461
436385,124,458,464
436386,123,462,463
436387,121,461,463
436388,118,459,463
436389,119,462,463
436390,118,459,462
436391,122,462,462
436392,123,460,460
436393,129,459,462
436394,133,459,462
436395,137,460,463
436396,141,462,463
436397,145,461,462
436398,146,461,462
436399,147,461,463
436400,150,460,463
436401,150,460,463
436402,150,460,462
436403,149,459,462
436404,150,461,462
436405,145,462,460
436406,143,460,461
436407,137,461,463
436408,138,461,462
436409,133,458,462
436410,133,462,462
436411,132,461,460
436412,132,460,461
436413,136,462,462
436414,139,463,462
436415,140,460,462
436416,140,460,461
436417,143,461,463
436418,143,459,461
436419,141,460,462
436420,138,460,459
436421,136,461,462
436422,133,461,463
436423,132,459,463
436424,130,461,462
436425,127,461,462
436426,127,459,463
436427,128,461,463
436428,127,459,463
436429,124,462,461
436430,124,460,461
436431,124,461,462
436432,122,461,462
436433,122,458,463
436434,123,459,462
436435,123,460,462
436436,124,459,461
436437,129,460,464
436438,134,460,462
436439,136,460,463
436440,138,461,459
436441,140,461,463
436442,140,459,462
436443,138,462,462
436444,135,462,462
436445,132,461,461
436446,129,460,463
436447,127,461,462
436448,126,460,462
436449,127,461,461
436450,127,460,462
436451,123,461,462
436452,123,461,462
436453,122,459,463
436454,122,461,462
436455,121,459,461
436456,122,460,462
436457,120,460,459
436458,123,462,463
436459,127,461,462
436460,129,461,462
436461,131,462,461
436462,134,459,462
436463,135,460,461
436464,133,463,461
436465,132,459,464
436466,131,461,462
436467,129,460,462
436468,128,461,461
436469,126,461,463
436470,122,461,462
436471,121,462,463
436472,118,460,458
436473,115,460,463
436474,116,459,462
436475,118,460,463
436476,120,462,462
436477,121,460,461
436478,123,462,461
436479,127,460,463
436480,130,460,462
436481,131,462,462
436482,131,460,461
436483,131,462,463
436484,128,460,461
436485,125,458,462
436486,123,461,461
436487,120,460,462
436488,116,457,463
436489,115,462,462
436490,111,460,462
436491,107,461,463
436492,107,460,462
436493,103,460,462
436494,100,461,461
436495,100,461,462
436496,100,460,460
436497,99,462,462
436498,102,461,461
436499,104,461,462
436500,110,461,461
436501,114,459,461
436502,116,462,463
436503,115,460,462
436504,113,460,462
436505,111,462,461
436506,108,462,461
436507,104,460,461
436508,101,462,463
436509,101,462,461
436510,98,460,460
436511,98,460,463
436512,101,460,463
436513,103,462,461
436514,110,462,463
436515,115,463,462
436516,123,460,462
436517,126,461,462
436518,132,461,462
436519,132,460,462
436520,133,460,461
436521,131,458,463
436522,129,460,461
436523,128,460,462
436524,121,461,462
436525,120,462,462
436526,120,461,463
436527,117,460,459
436528,116,461,463
436529,111,459,463
436530,109,460,463
436531,108,460,460
436532,108,462,462
436533,110,461,461
436534,110,462,462
436535,116,460,467
436536,119,461,463
436537,125,460,463
436538,131,462,459
436539,137,461,463
436540,141,460,461
436541,145,460,462
436542,147,460,462
436543,149,461,460
436544,149,460,461
436545,148,462,463
436546,146,462,462
436547,142,462,459
436548,143,461,461
436549,140,459,461
436550,140,460,462
436551,138,462,461
436552,142,459,464
436553,144,461,461
436554,147,458,461
436555,148,462,461
436556,153,462,460
436557,156,459,462
436558,159,460,462
436559,161,461,463
436560,164,459,461
436561,164,459,461
436562,164,462,461
436563,163,461,463
436564,160,458,462
436565,157,460,461
436566,152,461,463
436567,148,461,462
436568,141,461,462
436569,138,461,461
436570,134,461,463
436571,130,462,462
436572,131,459,462
436573,134,460,461
436574,136,460,463
436575,138,461,462
436576,143,459,463
436577,144,461,460
436578,145,461,462
436579,147,460,462
436580,146,460,461
436581,145,461,464
436582,145,460,463
436583,141,461,460
436584,139,460,462
436585,138,460,463
436586,133,462,462
436587,130,460,461
436588,129,462,464
436589,123,461,462
436590,119,460,461
436591,115,461,459
436592,112,460,462
436593,109,460,463
436594,110,460,462
436595,111,461,461
436596,115,459,464
436597,118,460,462
436598,123,460,461
436599,124,460,462
436600,129,462,463
436601,131,458,461
436602,132,462,461
436603,132,462,461
436604,131,460,460
436605,127,462,461
436606,126,461,461
436607,119,460,463
436608,114,461,463
436609,113,461,462
436610,110,461,461
436611,104,461,462
436612,105,458,461
436613,103,460,462
436614,104,461,463
436615,104,459,462
436616,107,462,462
436617,107,460,460
436618,107,461,460
436619,109,462,463
436620,109,460,463
436621,113,461,463
436622,112,461,463
436623,114,462,462
436624,111,460,461
436625,110,459,461
436626,107,462,461
436627,106,461,464
436628,103,461,460
436629,99,460,463
436630,100,462,461
436631,96,458,461
436632,93,460,462
436633,97,461,462
436634,97,461,461
436635,96,461,461
436636,96,461,461
436637,94,462,462
436638,91,462,462
436639,92,460,461
436640,89,463,460
436641,90,458,463
436642,86,462,462
436643,86,461,461
436644,85,459,462
436645,85,461,461
436646,86,461,460
436647,84,461,461
436648,81,461,463
436649,82,459,462
436650,84,461,461
436651,81,459,461
436652,83,461,459
436653,85,462,461
436654,85,460,463
436655,87,461,462
436656,89,462,462
436657,91,459,463
436658,94,457,461
436659,94,463,461
436660,98,459,462
436661,97,462,462
436662,97,459,462
436663,93,461,460
436664,91,461,462
436665,88,461,462
436666,86,459,462
436667,82,459,462
436668,77,461,462
436669,73,460,462
436670,71,462,459
436671,70,460,463
436672,70,461,461
436673,70,460,460
436674,72,461,462
436675,75,461,462
436676,79,459,462
436677,83,462,463
436678,86,461,463
436679,91,462,461
436680,95,460,460
436681,97,460,458
436682,101,460,461
436683,101,462,460
436684,102,461,462
436685,101,460,462
436686,99,460,462
436687,97,462,463
436688,94,468,461
436689,88,460,462
436690,87,460,461
436691,86,461,460
436692,80,461,464
436693,81,461,462
436694,85,460,462
436695,85,460,463
436696,89,462,462
436697,92,460,463
436698,93,461,462
436699,97,461,462
436700,100,461,462
436701,102,461,460
436702,105,461,463
436703,101,461,461
436704,103,461,459
436705,101,459,463
436706,99,461,462
436707,95,457,462
436708,94,461,462
436709,92,461,461
436710,92,461,462
436711,90,460,462
436712,88,461,462
436713,89,461,462
436714,86,462,463
436715,89,461,462
436716,90,462,464
436717,90,459,462
436718,93,459,462
436719,95,461,461
436720,98,462,462
436721,98,460,463
436722,97,461,461
436723,97,462,460
436724,96,461,462
436725,93,460,462
436726,92,461,462
436727,90,461,461
436728,90,460,461
436729,88,460,462
436730,86,460,459
436731,85,461,461
436732,84,461,462
436733,86,461,462
436734,86,461,462
436735,92,459,460
436736,96,461,461
436737,99,462,460
436738,106,462,462
436739,110,460,461
436740,116,459,462
436741,118,462,463
436742,119,461,461
436743,120,462,460
436744,121,459,463
436745,120,462,462
436746,117,462,461
436747,115,466,462
436748,114,461,460
436749,111,461,461
436750,110,460,462
436751,113,462,462
436752,114,461,461
436753,114,461,462
436754,116,463,460
436755,118,458,461
436756,120,462,461
436757,122,459,459
436758,126,460,463
436759,129,460,459
436760,136,460,462
436761,136,462,463
436762,142,459,463
436763,144,459,462
436764,143,461,461
436765,142,461,462
436766,138,461,461
436767,139,462,462
436768,135,461,462
436769,136,461,463
436770,134,461,462
436771,133,461,462
436772,135,460,462
436773,138,461,462
436774,140,462,462
436775,145,462,462
436776,149,461,462
436777,154,459,460
436778,156,463,462
436779,163,461,463
436780,162,460,462
436781,168,460,462
436782,168,461,462
436783,172,460,463
436784,168,461,461
436785,169,460,460
436786,167,460,462
436787,165,460,459
436788,160,460,462
436789,157,460,461
436790,155,461,462
436791,155,459,460
436792,153,459,462
436793,157,460,462
436794,159,461,462
436795,162,460,463
436796,166,461,461
436797,169,462,460
436798,175,462,463
436799,179,459,462
436800,180,460,463
436801,185,461,461
436802,188,458,461
436803,187,462,462
436804,188,460,462
436805,187,460,462
436806,186,462,462
436807,157,462,463
436808,144,460,461
436809,141,460,461
436810,141,460,462
436811,142,461,460
436812,145,462,462
436813,148,461,461
436814,152,461,462
436815,156,461,461
436816,157,461,460
436817,166,460,463
436818,169,462,462
436819,175,460,461
436820,179,461,462
436821,181,459,460
436822,184,461,462
436823,186,462,462
436824,186,460,461
436825,184,460,460
436826,185,459,461
436827,143,459,463
436828,121,460,461
436829,121,457,463
436830,122,461,462
436831,124,461,464
436832,127,461,461
436833,130,461,462
436834,135,462,462
436835,141,462,459
436836,147,460,461
436837,155,460,461
436838,159,461,460
436839,166,461,462
436840,171,461,461
436841,177,459,462
436842,180,460,462
436843,181,462,461
436844,183,461,462
436845,183,460,463
436846,183,457,461
436847,109,460,463
436848,85,461,463
436849,93,461,463
436850,96,460,462
436851,98,460,462
436852,105,462,463
436853,110,461,462
436854,116,462,462
436855,123,462,459
436856,128,461,463
436857,133,461,459
436858,142,460,462
436859,147,460,464
436860,153,458,462
436861,158,461,461
436862,159,461,463
436863,163,460,464
436864,164,461,463
436865,167,460,462
436866,168,459,463
436867,95,460,462
436868,3,462,462
436869,58,464,462
436870,63,461,462
436871,68,461,462
436872,70,461,463
436873,79,458,463
436874,86,461,460
436875,94,459,461
436876,103,460,461
436877,110,463,462
436878,120,461,461
436879,128,459,462
436880,135,460,461
436881,139,461,462
436882,146,461,461
436883,150,462,460
436884,154,460,463
436885,155,460,462
436886,158,461,462
436887,49,461,460
436888,2,460,461
436889,46,461,460
436890,51,461,462
436891,59,461,464
436892,65,461,462
436893,72,461,462
436894,82,461,462
436895,90,460,462
436896,98,461,460
436897,105,461,463
436898,118,462,463
436899,129,462,464
436900,137,459,461
436901,145,462,459
436902,153,467,464
436903,160,461,463
436904,165,461,463
436905,167,459,460
436906,171,461,462
436907,57,462,462
436908,3,462,458
436909,45,461,462
436910,52,461,463
436911,59,461,462
436912,67,461,462
436913,74,461,462
436914,84,462,458
436915,95,460,463
436916,106,460,462
436917,116,461,462
436918,127,461,464
436919,135,462,462
436920,147,461,462
436921,154,460,461
436922,164,464,462
436923,170,462,460
436924,175,462,461
436925,178,459,461
436926,183,461,462
436927,9,460,460
436928,2,461,462
436929,42,461,461
436930,51,460,462
436931,59,461,462
436932,73,462,462
436933,84,462,462
436934,96,462,462
436935,110,460,462
436936,124,459,461
436937,136,461,462
436938,149,461,461
436939,161,458,462
436940,172,462,462
436941,182,460,460
436942,193,462,462
436943,202,462,461
436944,206,461,460
436945,215,461,462
436946,220,462,461
436947,49,462,462
436948,2,462,463
436949,49,461,461
436950,65,461,462
436951,78,462,460
436952,91,460,462
436953,105,459,462
436954,118,459,460
436955,135,462,462
436956,149,461,462
436957,164,459,462
436958,179,460,461
436959,193,461,463
436960,206,462,461
436961,218,462,463
436962,224,461,461
436963,235,459,461
436964,241,461,459
436965,249,460,463
436966,251,458,460
436967,138,462,462
436968,3,462,462
436969,76,461,461
436970,89,462,462
436971,101,461,462
436972,113,462,459
436973,131,461,462
436974,146,459,461
436975,162,459,462
436976,178,460,462
436977,194,459,461
436978,210,462,462
436979,223,460,462
436980,238,461,461
436981,253,461,462
436982,262,462,463
436983,271,459,462
436984,277,461,462
436985,286,457,461
436986,292,461,460
436987,246,460,462
436988,39,462,460
436989,138,459,461
436990,148,457,462
436991,159,461,461
436992,170,460,462
436993,178,460,461
436994,192,461,460
436995,204,461,462
436996,216,460,461
436997,230,460,462
436998,244,462,461
436999,261,461,462
437000,274,462,462
437001,287,461,462
437002,304,462,462
437003,317,462,459
437004,325,460,463
437005,335,460,462
437006,341,460,462
437007,329,460,461
437008,108,459,461
437009,215,461,463
437010,227,461,460
437011,237,460,462
437012,244,462,462
437013,254,458,462
437014,263,460,463
437015,273,460,461
437016,286,459,461
437017,297,461,461
437018,309,461,460
437019,319,460,462
437020,332,460,461
437021,342,460,462
437022,355,458,461
437023,362,460,459
437024,375,460,462
437025,381,461,461
437026,387,460,462
437027,401,460,461
437028,191,460,462
437029,286,459,461
437030,296,462,461
437031,306,461,461
437032,314,460,462
437033,327,459,462
437034,338,460,461
437035,348,457,462
437036,360,460,461
437037,371,462,461
437038,382,457,459
437039,390,460,458
437040,399,459,462
437041,403,460,460
437042,408,462,462
437043,413,460,461
437044,418,460,462
437045,423,459,462
437046,430,459,462
437047,425,460,461
437048,169,460,463
437049,264,460,460
437050,274,460,460
437051,282,462,463
437052,291,459,463
437053,300,460,462
437054,309,461,463
437055,321,460,461
437056,332,462,461
437057,343,460,461
437058,353,458,462
437059,361,460,458
437060,371,460,462
437061,380,460,462
437062,387,460,462
437063,391,460,460
437064,397,460,461
437065,402,459,462
437066,404,460,460
437067,320,459,461
437068,5,461,462
437069,96,461,463
437070,119,460,461
437071,136,458,463
437072,150,459,460
437073,166,461,461
437074,177,461,462
437075,192,460,461
437076,204,462,462
437077,216,461,461
437078,230,459,461
437079,242,461,461
437080,257,460,461
437081,270,461,462
437082,282,458,462
437083,293,461,461
437084,306,460,461
437085,316,459,462
437086,326,459,461
437087,173,462,462
437088,3,459,462
437089,2,460,463
437090,66,463,462
437091,79,462,462
437092,97,461,461
437093,112,460,461
437094,129,461,459
437095,149,460,463
437096,168,458,462
437097,192,461,459
437098,214,459,462
437099,241,459,462
437100,261,461,459
437101,282,458,461
437102,301,461,463
437103,315,460,463
437104,331,461,462
437105,343,461,461
437106,351,461,462
437107,13,458,462
437108,5,461,462
437109,1,462,463
437110,53,456,462
437111,89,459,462
437112,117,459,461
437113,144,460,463
437114,171,459,462
437115,193,459,462
437116,223,460,462
437117,246,462,461
437118,271,459,461
437119,295,461,461
437120,316,461,463
437121,338,458,463
437122,357,462,460
437123,376,460,463
437124,393,460,463
437125,413,459,461
437126,413,460,462
437127,13,460,463
437128,8,460,459
437129,2,461,463
437130,58,461,461
437131,103,462,463
437132,141,461,460
437133,180,461,461
437134,215,460,462
437135,251,461,460
437136,284,460,462
437137,316,461,462
437138,350,462,461
437139,382,460,462
437140,411,461,460
437141,441,461,463
437142,468,460,461
437143,493,459,462
1741019021506,NEW REP,,
437144,514,461,459
437145,539,459,462
437146,544,461,461
437147,87,460,462
437148,4,461,462
437149,1,462,462
437150,67,458,462
437151,124,462,461
437152,175,460,461
437153,224,462,462
437154,273,461,462
437155,320,460,462
437156,361,460,462
437157,399,461,460
437158,436,461,463
437159,472,460,459
437160,507,460,461
437161,541,460,461
437162,572,461,461
437163,603,459,462
437164,629,460,463
437165,662,457,461
437166,642,459,462
437167,204,460,460
437168,7,462,460
437169,2,460,461
437170,37,461,459
437171,143,460,463
437172,205,460,461
437173,258,461,462
437174,310,462,462
437175,361,462,462
437176,407,463,462
437177,454,459,462
437178,498,461,462
437179,540,462,461
437180,579,461,460
437181,618,461,462
437182,656,458,460
437183,692,460,461
437184,724,460,461
437185,753,460,461
437186,727,458,460
437187,280,459,462
437188,7,461,460
437189,4,460,462
437190,1,459,462
437191,150,460,461
437192,215,460,462
437193,280,460,462
437194,337,458,462
437195,396,457,462
437196,454,460,460
437197,507,460,460
437198,560,457,461
437199,608,461,462
437200,655,458,461
437201,701,461,461
437202,742,461,458
437203,787,460,461
437204,828,460,462
437205,866,460,461
437206,792,459,462
437207,376,459,459
437208,9,461,461
437209,4,460,463
437210,1,461,462
437211,147,460,459
437212,214,459,461
437213,279,459,461
437214,342,460,461
437215,406,460,460
437216,466,461,460
437217,529,459,460
437218,589,460,462
437219,652,461,461
437220,707,461,460
437221,763,459,463
437222,812,460,461
437223,858,461,463
437224,898,460,462
437225,939,458,461
437226,837,461,457
437227,365,462,461
437228,10,461,460
437229,4,460,462
437230,1,460,462
437231,152,461,463
437232,231,460,463
437233,303,461,459
437234,377,461,457
437235,451,459,462
437236,523,461,460
437237,591,462,461
437238,661,460,461
437239,726,460,463
437240,791,463,461
437241,849,460,462
437242,900,461,462
437243,953,461,461
437244,999,462,461
437245,1023,460,462
437246,992,461,460
437247,544,460,461
437248,12,462,462
437249,6,461,464
437250,3,461,462
437251,175,462,462
437252,259,461,462
437253,340,460,462
437254,419,461,461
437255,490,460,463
437256,566,461,461
437257,637,460,459
437258,708,458,461
437259,768,461,459
437260,830,460,462
437261,890,459,462
437262,947,461,460
437263,997,460,461
437264,1023,460,461
437265,1023,460,460
437266,1023,486,465
437267,740,459,462
437268,100,462,463
437269,9,462,461
437270,4,460,463
437271,216,459,462
437272,297,462,463
437273,376,461,460
437274,452,460,462
437275,526,460,462
437276,603,460,463
437277,675,460,461
437278,747,460,462
437279,816,460,462
437280,884,461,463
437281,945,460,461
437282,1007,461,462
437283,1023,461,461
437284,1023,482,466
437285,736,461,460
437286,745,460,460
437287,921,459,461
437288,221,460,458
437289,9,459,462
437290,79,459,461
437291,268,457,461
437292,356,459,461
437293,435,461,463
437294,512,459,462
437295,592,461,461
437296,670,461,459
437297,746,461,461
437298,817,458,461
437299,887,461,462
437300,959,460,462
437301,1023,458,461
437302,1023,460,459
437303,929,460,463
437304,740,460,459
437305,749,459,460
437306,754,480,480
437307,1023,462,462
437308,338,462,462
437309,13,461,459
437310,145,461,461
437311,317,460,461
437312,407,460,461
437313,492,460,460
437314,577,461,460
437315,661,460,461
437316,742,460,461
437317,816,459,462
437318,884,458,460
437319,950,459,458
437320,1010,459,460
437321,1023,460,462
437322,1023,480,465
437323,737,459,462
437324,747,457,460
437325,753,474,475
437326,756,482,477
437327,1023,462,461
437328,394,460,461
437329,15,461,461
437330,151,460,461
437331,345,460,462
437332,433,462,462
437333,520,457,461
437334,606,462,461
437335,685,460,460
437336,757,460,460
437337,828,459,460
437338,893,459,460
437339,959,460,460
437340,1020,458,460
437341,1023,460,460
437342,1023,474,465
437343,740,457,460
437344,748,460,461
437345,755,481,479
437346,754,479,479
437347,853,461,461
437348,412,461,462
437349,16,462,462
437350,128,460,463
437351,348,461,462
437352,435,460,463
437353,525,463,461
437354,608,461,462
437355,688,462,462
437356,762,462,460
437357,833,461,463
437358,896,460,463
437359,962,460,461
437360,1023,459,461
437361,1023,459,463
437362,967,465,465
437363,740,458,461
437364,748,459,461
437365,753,479,479
437366,753,479,478
437367,872,460,464
437368,420,462,465
437369,18,459,462
437370,124,461,462
437371,324,461,463
437372,413,461,463
437373,501,462,462
437374,585,461,459
437375,663,462,461
437376,740,459,462
437377,811,460,461
437378,878,460,462
437379,947,460,460
437380,1012,462,461
437381,1023,461,462
437382,1023,473,466
437383,739,458,461
437384,748,460,461
437385,755,480,479
437386,753,480,479
437387,831,463,464
437388,427,461,462
437389,16,462,462
437390,77,461,464
437391,308,461,464
437392,394,462,463
437393,476,461,462
437394,561,461,461
437395,641,460,463
437396,720,461,460
437397,793,458,462
437398,864,461,462
437399,924,461,462
437400,995,461,463
437401,1023,460,463
437402,1023,485,464
437403,736,459,461
437404,747,460,460
437405,754,480,478
437406,754,481,478
437407,743,459,461
437408,440,461,462
437409,18,460,463
437410,71,461,463
437411,324,461,461
437412,417,461,460
437413,495,460,462
437414,578,462,462
437415,659,460,462
437416,737,462,459
437417,813,460,462
437418,886,461,460
437419,951,461,462
437420,1013,459,464
437421,1023,460,461
437422,1023,473,465
437423,737,458,462
437424,748,459,461
437425,753,481,478
437426,754,482,479
437427,754,473,465
437428,562,459,461
437429,125,459,462
437430,303,461,462
437431,500,460,461
437432,587,461,461
437433,668,461,462
437434,747,460,462
437435,824,459,460
437436,891,461,460
437437,960,459,459
437438,1023,459,462
437439,1023,459,462
437440,921,461,462
437441,741,460,461
437442,751,456,460
437443,754,480,478
437444,754,482,477
437445,754,480,478
437446,755,481,479
437447,755,481,479
437448,684,460,462
437449,284,460,462
437450,460,459,462
437451,631,461,462
437452,705,460,457
437453,775,461,458
437454,847,458,461
437455,913,459,460
437456,974,460,462
437457,1023,460,461
437458,1023,460,460
437459,748,459,461
437460,745,459,460
437461,752,468,471
437462,754,480,479
437463,754,481,479
437464,754,482,479
437465,755,481,480
437466,755,482,479
437467,754,480,478
437468,852,460,460
437469,495,459,460
437470,765,460,463
437471,843,460,461
437472,908,461,461
437473,970,456,460
437474,1023,459,461
437475,1023,459,460
437476,812,461,462
437477,744,460,462
437478,751,462,464
437479,754,480,478
437480,754,480,478
437481,754,481,478
437482,754,480,479
437483,753,481,479
437484,753,480,478
437485,754,481,478
437486,753,479,477
437487,754,481,479
437488,1020,460,461
437489,671,460,462
437490,937,461,462
437491,1000,459,460
437492,1023,459,461
437493,1023,459,460
437494,759,461,463
437495,744,459,461
437496,751,461,462
437497,754,480,477
437498,754,481,479
437499,755,479,477
437500,754,482,476
437501,754,482,478
437502,754,479,479
437503,755,481,477
437504,754,480,479
437505,754,481,478
437506,755,481,478
437507,754,481,478
437508,1023,458,460
437509,852,459,462
437510,1023,459,457
437511,1023,459,459
437512,745,461,463
437513,742,457,461
437514,748,460,460
437515,754,479,479
437516,754,480,479
437517,755,480,478
437518,754,482,477
437519,756,481,479
437520,755,480,478
437521,754,479,478
437522,754,481,479
437523,754,480,479
437524,755,480,478
437525,754,480,478
437526,755,479,479
437527,754,480,479
437528,740,462,463
437529,939,457,462
437530,1023,481,465
437531,736,458,462
437532,742,458,461
437533,748,460,461
437534,754,473,476
437535,755,479,478
437536,753,481,476
437537,754,481,478
437538,754,479,478
437539,754,481,479
437540,754,482,477
437541,755,479,479
437542,754,480,480
437543,755,481,481
437544,754,481,479
437545,754,480,479
437546,754,480,479
437547,753,481,479
437548,748,458,461
437549,977,458,461
437550,791,460,462
437551,738,461,462
437552,745,460,460
437553,749,459,461
437554,754,476,476
437555,753,482,479
437556,755,479,477
437557,754,482,477
437558,754,479,478
437559,754,479,478
437560,754,481,479
437561,754,479,478
437562,755,480,479
437563,755,481,480
437564,754,480,480
437565,754,481,477
437566,756,481,480
437567,755,479,478
437568,753,478,470
437569,1023,462,459
437570,746,460,460
437571,749,459,461
437572,750,466,467
437573,754,480,478
437574,754,481,478
437575,753,481,479
437576,754,478,477
437577,754,480,480
437578,754,480,478
437579,755,481,480
437580,755,482,479
437581,755,481,476
437582,755,480,478
437583,754,480,478
437584,755,481,477
437585,754,480,479
437586,754,481,477
437587,753,479,478
437588,753,479,480
437589,749,460,465
437590,754,480,480
437591,754,481,479
437592,755,480,478
437593,754,479,478
437594,754,479,477
437595,756,481,479
437596,754,478,477
437597,754,480,478
437598,754,481,478
437599,755,481,480
437600,754,480,478
437601,754,482,477
437602,754,482,477
437603,754,481,479
437604,753,478,478
437605,755,479,478
437606,754,481,480
437607,756,479,478
437608,754,480,478
437609,753,479,478
437610,755,480,480
437611,755,481,477
437612,754,479,478
437613,753,481,477
437614,755,480,477
437615,754,481,478
437616,754,479,479
437617,755,479,478
437618,753,479,479
437619,756,480,478
437620,754,480,479
437621,755,480,478
437622,754,481,477
437623,754,481,479
437624,755,481,479
437625,754,479,479
437626,754,480,478
437627,755,479,477
437628,755,480,478
437629,754,473,474
437630,755,480,477
437631,754,479,479
437632,755,480,478
437633,755,480,478
437634,755,479,479
437635,755,481,477
437636,754,482,477
437637,754,481,479
437638,754,480,478
437639,755,479,477
437640,754,479,478
437641,753,480,480
437642,754,480,478
437643,754,480,478
437644,754,478,478
437645,754,478,478
437646,754,481,476
437647,755,481,478
437648,754,481,478
437649,756,475,472
437650,753,477,475
437651,753,481,478
437652,754,481,478
437653,755,480,478
437654,754,482,478
437655,754,481,480
437656,754,479,478
437657,753,479,478
437658,754,480,478
437659,755,480,477
437660,755,481,478
437661,754,478,479
437662,753,479,479
437663,754,480,477
437664,753,471,471
437665,753,468,466
437666,752,463,464
437667,752,463,466
437668,751,462,463
437669,751,461,462
437670,751,461,463
437671,751,460,464
437672,751,461,463
437673,750,462,462
437674,751,465,464
437675,751,469,466
437676,753,469,472
437677,754,472,472
437678,753,472,471
437679,752,469,470
437680,752,466,468
437681,752,462,465
437682,750,460,459
437683,750,459,462
437684,748,460,462
437685,748,460,458
437686,745,460,461
437687,742,458,460
437688,742,457,459
437689,741,459,459
437690,740,461,461
437691,738,460,460
437692,736,459,461
437693,736,459,461
437694,736,459,461
437695,736,460,460
437696,736,459,461
437697,736,460,460
437698,739,459,461
437699,740,458,462
437700,741,460,459
437701,741,460,460
437702,742,459,459
437703,742,459,460
437704,741,459,461
437705,740,460,461
437706,737,460,460
437707,736,460,462
437708,746,460,459
437709,840,460,459
437710,927,463,465
437711,1013,472,465
437712,1023,483,464
437713,1023,485,465
437714,1023,486,465
437715,1023,487,465
437716,1023,486,465
437717,1023,483,465
437718,1023,483,466
437719,1023,487,465
437720,1023,481,465
437721,1023,486,466
437722,1023,488,464
437723,1023,477,465
437724,1023,465,463
437725,1023,463,465
437726,1023,461,462
437727,1023,461,462
437728,1023,459,462
437729,1023,461,459
437730,1023,460,462
437731,1023,460,461
437732,1023,461,463
437733,1023,461,463
437734,1023,459,462
437735,1023,461,461
437736,1023,461,461
437737,1023,460,462
437738,1023,461,461
437739,1023,460,462
437740,1023,460,460
437741,1023,462,460
437742,1019,460,461
437743,1010,459,461
437744,1000,461,462
437745,995,462,460
437746,994,460,462
437747,995,460,462
437748,993,460,462
437749,992,458,460
437750,989,461,460
437751,984,461,462
437752,984,459,461
437753,983,461,461
437754,979,461,461
437755,976,459,462
437756,972,457,461
437757,972,460,460
437758,972,461,461
437759,975,459,462
437760,975,458,460
437761,976,456,460
437762,974,457,461
437763,972,459,461
437764,970,461,462
437765,967,462,461
437766,960,461,460
437767,952,459,461
437768,943,459,461
437769,934,461,462
437770,922,460,462
437771,912,458,462
437772,899,459,460
437773,889,462,461
437774,884,459,461
437775,880,459,462
437776,873,461,463
437777,875,461,460
437778,881,461,461
437779,884,460,462
437780,887,461,461
437781,892,461,461
437782,890,460,462
437783,881,462,461
437784,878,460,462
437785,870,459,461
437786,855,461,458
437787,846,462,458
437788,840,461,465
437789,832,459,462
437790,816,459,463
437791,811,459,461
437792,803,459,461
437793,798,462,460
437794,793,459,462
437795,792,457,461
437796,794,459,461
437797,794,461,459
437798,801,459,462
437799,807,462,461
437800,812,462,460
437801,818,461,460
437802,818,460,462
437803,815,459,461
437804,813,461,462
437805,808,461,462
437806,807,461,463
437807,792,460,461
437808,784,460,462
437809,774,461,461
437810,763,462,461
437811,752,461,462
437812,744,460,463
437813,738,461,463
437814,732,461,460
437815,730,462,462
437816,729,462,462
437817,731,461,461
437818,733,458,461
437819,737,461,461
437820,739,461,462
437821,741,461,460
437822,743,460,462
437823,743,460,462
437824,743,460,460
437825,742,460,464
437826,735,465,460
437827,733,462,461
437828,725,460,462
437829,719,460,460
437830,710,461,461
437831,704,460,461
437832,700,460,461
437833,696,458,462
437834,689,460,462
437835,688,460,460
437836,688,461,461
437837,686,461,462
437838,684,462,461
437839,683,460,461
437840,681,460,463
437841,680,460,458
437842,680,458,461
437843,674,461,459
437844,667,460,461
437845,663,462,463
437846,658,460,458
437847,652,460,461
437848,646,461,462
437849,638,461,462
437850,631,457,462
437851,627,460,461
437852,621,458,462
437853,618,462,461
437854,614,460,462
437855,615,460,463
437856,614,461,462
437857,617,461,462
437858,615,460,461
437859,615,461,463
437860,616,461,462
437861,616,460,463
437862,615,458,461
437863,610,460,461
437864,610,461,462
437865,604,461,462
437866,599,462,463
437867,597,459,460
437868,588,461,461
437869,583,461,461
437870,580,460,461
437871,573,461,462
437872,571,461,461
437873,565,457,461
437874,562,459,462
437875,560,460,461
437876,559,460,462
437877,558,460,462
437878,557,459,461
437879,558,460,462
437880,558,462,460
437881,557,460,461
437882,556,462,461
437883,556,458,461
437884,550,461,459
437885,548,461,460
437886,541,460,461
437887,537,459,462
437888,535,460,463
437889,526,461,461
437890,523,461,460
437891,518,460,463
437892,513,461,462
437893,511,461,462
437894,510,460,461
437895,508,461,462
437896,508,462,461
437897,507,462,462
437898,509,460,461
437899,510,461,462
437900,513,459,461
437901,514,460,462
437902,515,459,460
437903,513,459,461
437904,514,460,462
437905,510,462,462
437906,507,461,460
437907,504,459,462
437908,498,459,462
437909,502,458,462
437910,491,458,462
437911,486,460,460
437912,484,462,458
437913,479,461,460
437914,479,459,462
437915,478,461,462
437916,480,460,464
437917,478,459,461
437918,481,459,461
437919,483,459,461
437920,486,460,459
437921,486,462,462
437922,489,460,461
437923,487,460,462
437924,488,458,461
437925,485,460,462
437926,484,462,457
437927,482,460,462
437928,477,461,461
437929,474,460,462
437930,471,459,462
437931,466,460,461
437932,464,460,461
437933,463,461,462
437934,459,460,462
437935,461,461,462
437936,462,459,462
437937,464,459,462
437938,465,459,461
437939,468,459,462
437940,470,459,462
437941,472,462,461
437942,475,460,462
437943,476,461,462
437944,476,460,461
437945,474,461,461
437946,470,459,462
437947,471,460,462
437948,466,459,462
437949,458,461,461
437950,461,458,462
437951,457,459,463
437952,453,459,462
437953,451,461,463
437954,450,459,462
437955,448,461,462
437956,451,461,461
437957,451,462,459
437958,455,459,463
437959,457,459,462
437960,459,457,461
437961,462,460,460
437962,460,460,461
437963,460,460,462
437964,461,460,460
437965,462,460,462
437966,457,461,462
437967,455,461,462
437968,452,460,462
437969,447,459,462
437970,443,460,462
437971,441,460,461
437972,441,460,461
437973,440,459,461
437974,440,458,460
437975,441,460,463
437976,441,461,463
437977,444,460,461
437978,446,458,463
437979,448,461,462
437980,451,461,461
437981,454,459,461
437982,456,459,464
437983,455,460,460
437984,456,462,461
437985,456,458,462
437986,453,458,461
437987,452,460,462
437988,451,461,462
437989,445,460,461
437990,443,461,461
437991,438,460,460
437992,438,459,462
437993,435,460,460
437994,435,459,462
437995,433,461,463
437996,435,458,461
437997,437,460,461
437998,439,460,460
437999,441,461,461
438000,444,459,462
438001,445,460,461
438002,448,459,462
438003,450,460,460
438004,449,461,461
438005,450,459,461
438006,449,459,463
438007,448,460,462
438008,442,460,462
438009,439,459,463
438010,435,461,463
438011,433,461,460
438012,428,460,463
438013,426,459,461
438014,425,460,460
438015,423,460,459
438016,425,459,461
438017,424,460,461
438018,426,460,462
438019,428,461,462
438020,429,459,462
438021,431,460,460
438022,432,460,460
438023,433,460,462
438024,431,460,460
438025,430,460,462
438026,426,461,461
438027,426,460,460
438028,419,461,460
438029,415,461,461
438030,409,458,461
438031,406,462,461
438032,403,460,459
438033,403,460,462
438034,400,460,462
438035,401,460,461
438036,399,460,459
438037,399,460,459
438038,402,459,461
438039,402,462,460
438040,403,459,461
438041,403,460,462
438042,404,460,461
438043,403,459,460
438044,403,458,462
438045,401,459,462
438046,396,460,462
438047,392,458,461
438048,385,460,461
438049,379,460,461
438050,377,459,462
438051,371,460,462
438052,367,460,460
438053,363,460,462
438054,357,461,462
438055,357,460,462
438056,353,460,459
438057,355,462,462
438058,354,461,460
438059,355,460,461
438060,355,460,462
438061,357,461,461
438062,355,460,460
438063,356,459,460
438064,353,459,462
438065,350,459,459
438066,344,459,459
438067,343,460,460
438068,339,459,461
438069,333,460,460
438070,335,459,462
438071,333,461,462
438072,330,460,461
438073,328,461,460
438074,328,460,462
438075,329,459,460
438076,327,460,463
438077,330,456,460
438078,330,459,460
438079,329,461,461
438080,329,459,462
438081,324,460,461
438082,327,461,461
438083,325,459,462
438084,325,460,462
438085,323,457,461
438086,323,458,460
438087,320,462,461
438088,318,460,461
438089,316,461,461
438090,315,458,460
438091,315,461,462
438092,310,460,460
438093,309,458,460
438094,307,459,461
438095,307,460,460
438096,304,462,462
438097,309,459,462
438098,310,460,462
438099,311,460,462
438100,306,460,458
438101,312,461,461
438102,313,459,460
438103,312,461,462
438104,311,459,462
438105,311,460,461
438106,309,459,462
438107,308,459,460
438108,305,460,458
438109,300,458,461
438110,295,459,462
438111,292,458,460
438112,287,461,462
438113,284,460,462
438114,282,461,462
438115,282,459,462
438116,284,459,460
438117,287,461,459
438118,291,460,461
438119,289,460,461
438120,290,460,461
438121,291,459,462
438122,292,460,461
438123,292,459,462
438124,293,461,461
438125,293,457,462
438126,293,460,459
438127,294,460,463
438128,291,460,462
438129,285,463,461
438130,281,459,461
438131,275,458,461
438132,271,460,458
438133,273,462,460
438134,275,460,461
438135,277,460,461
438136,279,461,462
438137,283,457,462
438138,284,460,462
438139,284,461,462
438140,288,459,464
438141,285,460,461
438142,288,457,460
438143,289,461,461
438144,291,460,461
438145,297,462,462
438146,294,459,461
438147,291,460,461
438148,291,461,462
438149,286,460,461
438150,278,461,460
438151,269,461,459
438152,262,460,460
438153,257,460,461
438154,256,461,462
438155,259,460,461
438156,264,461,462
438157,270,459,462
438158,272,460,460
438159,275,461,460
438160,277,461,461
438161,277,460,459
438162,276,461,462
438163,278,462,461
438164,281,460,462
438165,281,460,462
438166,278,461,461
438167,279,459,460
438168,276,459,461
438169,273,461,461
438170,268,460,461
438171,261,461,461
438172,259,461,461
438173,259,459,461
438174,261,460,460
438175,265,460,461
438176,268,460,462
438177,273,461,461
438178,279,460,460
438179,286,460,462
438180,290,461,461
438181,294,460,459
438182,299,460,461
438183,302,461,460
438184,304,460,459
438185,305,460,458
438186,302,459,461
438187,300,459,462
438188,294,462,462
438189,291,460,462
438190,287,462,459
438191,283,457,461
438192,277,461,460
438193,274,460,461
438194,271,460,460
438195,270,460,461
438196,271,460,461
438197,278,460,460
438198,281,460,462
438199,292,459,461
438200,297,459,462
438201,302,460,461
438202,304,460,461
438203,303,460,462
438204,306,462,461
438205,306,462,460
438206,306,461,461
438207,305,461,460
438208,303,461,460
438209,300,460,462
438210,296,460,461
438211,293,461,461
438212,293,460,462
438213,290,461,460
438214,290,462,460
438215,289,461,461
438216,289,460,460
438217,291,460,461
438218,293,461,462
438219,300,460,462
438220,301,462,460
438221,303,459,458
438222,307,460,460
438223,307,461,462
438224,307,461,462
438225,304,461,461
438226,306,461,461
438227,304,460,462
438228,302,460,462
438229,300,461,461
438230,297,461,460
438231,299,460,461
438232,300,460,462
438233,302,463,460
438234,302,458,461
438235,303,461,459
438236,303,460,461
438237,305,460,463
438238,311,460,461
438239,314,461,460
438240,318,459,462
438241,324,460,462
438242,326,459,462
438243,330,460,461
438244,330,462,460
438245,330,460,461
438246,325,460,461
438247,323,458,461
438248,320,461,461
438249,318,461,462
438250,313,460,462
438251,308,462,461
438252,305,460,461
438253,300,462,461
438254,296,460,462
438255,295,462,459
438256,296,462,461
438257,298,460,462
438258,298,460,460
438259,300,461,461
438260,302,460,461
438261,303,461,462
438262,303,459,461
438263,310,460,461
438264,316,460,461
438265,321,461,462
438266,325,460,462
438267,329,460,462
438268,332,460,460
438269,331,461,464
438270,334,461,461
438271,331,462,459
438272,334,460,463
438273,334,461,461
438274,336,459,461
438275,336,461,462
438276,339,460,462
438277,342,461,461
438278,344,461,461
438279,342,461,460
438280,346,459,463
438281,343,461,462
438282,346,461,462
438283,344,461,461
438284,344,461,460
438285,341,461,461
438286,342,461,461
438287,341,460,460
438288,337,461,462
438289,340,461,463
438290,340,461,462
438291,337,460,462
438292,338,460,462
438293,337,461,461
438294,338,461,460
438295,338,462,462
438296,337,460,460
438297,340,461,462
438298,339,460,460
438299,343,461,461
438300,346,460,463
438301,348,460,461
438302,352,461,461
438303,353,460,461
438304,357,460,462
438305,358,462,462
438306,355,459,461
438307,352,461,462
438308,349,460,460
438309,343,460,461
438310,340,462,462
438311,332,460,460
438312,328,462,461
438313,322,459,462
438314,314,460,460
438315,308,461,462
438316,303,462,460
438317,300,459,462
438318,300,462,462
438319,301,461,461
438320,305,461,462
438321,311,459,461
438322,317,460,459
438323,320,461,460
438324,326,462,461
438325,324,460,461
438326,327,459,461
438327,322,457,462
438328,319,461,462
438329,314,460,458
438330,310,461,462
438331,303,462,462
438332,299,461,461
438333,293,461,461
438334,294,460,461
438335,290,461,461
438336,288,461,462
438337,289,460,461
438338,288,460,461
438339,283,461,459
438340,284,458,461
438341,280,460,459
438342,277,462,461
438343,273,460,461
438344,273,461,460
438345,272,460,460
438346,271,461,462
438347,270,460,462
438348,269,461,461
438349,267,457,462
438350,264,460,462
438351,264,461,462
438352,269,458,460
438353,269,461,462
438354,274,461,462
438355,277,461,462
438356,280,461,461
438357,284,461,460
438358,290,460,462
438359,296,460,461
438360,301,461,460
438361,308,462,463
438362,313,460,459
438363,317,458,462
438364,318,460,459
438365,324,461,461
438366,324,461,462
438367,324,460,461
438368,321,461,461
438369,319,461,462
438370,313,461,459
438371,312,461,460
438372,308,461,459
438373,306,458,462
438374,304,459,462
438375,305,461,461
438376,307,460,460
438377,309,459,461
438378,317,461,461
438379,323,460,460
438380,330,461,461
438381,334,461,462
438382,339,460,461
438383,339,461,461
438384,345,460,460
438385,346,459,461
438386,347,460,461
438387,344,461,462
438388,340,460,460
438389,336,460,458
438390,338,460,461
438391,334,460,461
438392,332,461,461
438393,338,460,460
438394,343,459,462
438395,344,460,462
438396,352,461,461
438397,357,460,459
438398,364,460,462
438399,370,460,461
438400,378,462,460
438401,385,460,460
438402,391,459,460
438403,398,461,461
438404,400,460,460
438405,401,462,461
438406,398,461,459
438407,391,462,461
438408,385,460,458
438409,377,461,462
438410,378,459,461
438411,365,461,459
438412,364,460,459
438413,366,461,462
438414,367,460,462
438415,373,460,461
438416,376,462,463
438417,382,458,461
438418,387,459,465
438419,394,461,462
438420,400,460,461
438421,399,461,462
438422,405,460,461
438423,408,460,461
438424,409,459,462
438425,408,459,463
438426,405,461,460
438427,405,460,461
438428,399,461,461
438429,393,461,462
438430,390,459,461
438431,384,459,462
438432,377,459,460
438433,373,458,461
438434,369,461,461
438435,366,461,461
438436,365,460,461
438437,366,460,462
438438,370,459,461
438439,373,460,461
438440,374,459,461
438441,378,460,460
438442,382,458,459
438443,382,460,458
438444,381,461,463
438445,380,461,460
438446,377,458,462
438447,372,460,460
438448,368,459,461
438449,363,460,460
438450,356,459,462
438451,351,459,461
438452,343,460,461
438453,340,460,461
438454,339,461,461
438455,335,460,463
438456,334,460,463
438457,333,459,462
438458,332,461,461
438459,334,460,462
438460,331,460,459
438461,330,459,462
438462,327,461,461
438463,326,458,462
438464,320,460,462
438465,315,461,461
438466,313,460,461
438467,305,460,461
438468,298,461,461
438469,287,460,463
438470,279,461,462
438471,274,461,459
438472,265,462,461
438473,261,460,461
438474,253,459,463
438475,252,460,462
438476,248,460,461
438477,248,460,461
438478,247,461,462
438479,244,460,460
438480,244,460,461
438481,243,461,459
438482,239,461,459
438483,239,460,462
438484,235,461,462
438485,230,462,462
438486,222,459,462
438487,220,459,464
438488,212,460,463
438489,208,461,461
438490,158,461,462
438491,161,461,462
438492,157,458,461
438493,155,459,462
438494,156,459,461
438495,156,462,460
438496,156,461,461
438497,158,460,462
438498,161,461,462
438499,161,461,462
438500,166,460,461
438501,167,461,459
438502,172,460,460
438503,172,460,463
438504,172,458,462
438505,171,463,462
438506,169,458,462
438507,164,461,462
438508,156,460,461
438509,153,460,461
438510,135,460,462
438511,98,459,461
438512,102,459,460
438513,98,460,464
438514,98,462,462
438515,100,460,462
438516,99,461,462
438517,102,461,463
438518,105,460,460
438519,110,462,461
438520,115,462,462
438521,118,461,463
438522,123,463,460
438523,127,460,463
438524,128,461,463
438525,128,460,462
438526,127,460,463
438527,126,460,463
438528,121,461,462
438529,115,462,463
438530,92,460,462
438531,75,459,461
438532,70,462,463
438533,68,461,461
438534,65,460,462
438535,65,460,462
438536,64,460,461
438537,68,459,462
438538,71,461,461
438539,76,458,462
438540,80,461,461
438541,83,461,462
438542,90,462,461
438543,98,461,463
438544,100,461,460
438545,103,462,461
438546,102,460,460
438547,103,460,462
438548,103,462,463
438549,100,461,461
438550,77,461,461
438551,60,461,459
438552,60,460,463
438553,61,462,463
438554,61,461,462
438555,61,461,463
438556,62,461,462
438557,66,459,460
438558,60,461,462
438559,75,459,461
438560,80,459,463
438561,85,461,466
438562,91,461,461
438563,97,460,459
438564,99,461,463
438565,99,459,461
438566,98,461,462
438567,97,461,460
438568,96,461,461
438569,96,460,463
438570,80,461,460
438571,52,460,462
438572,52,461,463
438573,58,458,463
438574,56,460,462
438575,62,459,461
438576,66,461,463
438577,72,461,463
438578,75,460,463
438579,84,461,459
438580,90,463,462
438581,99,461,463
438582,105,461,462
438583,111,461,462
438584,115,461,461
438585,119,461,462
438586,121,462,462
438587,121,462,461
438588,122,458,462
438589,120,462,463
438590,103,461,461
438591,46,461,462
438592,61,462,460
438593,63,460,463
438594,68,460,463
438595,71,459,463
438596,76,462,460
438597,83,460,460
438598,89,460,463
438599,97,460,463
438600,105,461,463
438601,111,460,462
438602,119,461,464
438603,125,461,462
438604,130,460,461
438605,135,462,462
438606,137,460,459
438607,141,461,463
438608,142,459,462
438609,140,459,462
438610,77,459,462
438611,2,461,461
438612,46,462,463
438613,51,462,462
438614,55,460,461
438615,61,460,460
438616,67,459,462
438617,75,461,461
438618,86,461,462
438619,94,461,461
438620,104,461,461
438621,112,461,462
438622,123,460,464
438623,132,460,463
438624,142,460,460
438625,147,460,464
438626,151,461,461
438627,157,461,461
438628,157,461,462
438629,157,460,462
438630,75,457,461
438631,2,461,460
438632,50,459,462
438633,56,461,461
438634,64,461,462
438635,73,461,462
438636,81,461,464
438637,94,461,463
438638,101,461,461
438639,111,458,461
438640,122,460,461
438641,131,461,461
438642,142,462,462
438643,153,459,462
438644,161,461,460
438645,168,460,461
438646,175,458,462
438647,177,459,462
438648,179,459,462
438649,182,461,463
438650,83,461,461
438651,0,462,462
438652,55,458,461
438653,62,460,461
438654,71,462,460
438655,83,461,460
438656,94,460,462
438657,106,460,462
438658,117,461,462
438659,129,462,462
438660,142,460,462
438661,153,459,462
438662,160,461,462
438663,172,461,464
438664,184,460,461
438665,193,461,461
438666,197,460,462
438667,205,460,462
438668,209,460,462
438669,213,460,463
438670,73,464,461
438671,2,459,463
438672,54,457,465
438673,62,462,461
438674,76,460,462
438675,84,459,462
438676,100,461,462
438677,113,460,462
438678,127,460,462
438679,142,460,462
438680,154,460,462
438681,169,459,462
438682,181,460,464
438683,196,460,461
438684,210,460,463
438685,216,459,462
438686,226,461,463
438687,235,458,462
438688,240,460,462
438689,247,460,463
438690,113,458,462
438691,4,462,463
438692,60,460,460
438693,74,461,462
438694,86,460,462
438695,102,459,462
438696,114,460,463
438697,130,461,462
438698,145,460,462
438699,163,461,461
438700,179,461,461
438701,195,461,460
438702,210,460,462
438703,223,461,462
438704,235,462,462
438705,248,461,461
438706,259,462,461
438707,268,459,463
438708,272,460,463
438709,279,460,462
438710,195,459,462
438711,5,461,460
438712,89,460,461
438713,103,461,462
438714,118,462,463
438715,131,460,460
438716,147,461,462
438717,163,462,463
438718,179,461,462
438719,195,461,463
438720,211,462,462
438721,229,461,462
438722,242,462,462
438723,257,460,463
438724,272,459,461
438725,281,461,463
438726,292,462,460
438727,305,460,462
438728,312,462,462
438729,319,461,460
438730,245,464,460
438731,11,460,461
438732,135,461,462
438733,148,460,461
438734,163,460,461
438735,176,462,461
438736,192,460,463
438737,204,462,464
438738,223,461,462
438739,240,462,462
438740,253,460,462
438741,270,461,461
438742,285,462,461
438743,301,461,462
438744,315,461,454
438745,325,461,460
438746,336,459,461
438747,344,460,461
438748,352,460,462
438749,358,460,462
438750,293,460,461
438751,6,461,462
438752,117,460,463
438753,133,459,463
438754,147,461,462
438755,162,460,462
438756,178,458,462
438757,195,461,463
438758,211,461,462
438759,226,461,461
438760,246,461,462
438761,263,459,461
438762,279,460,462
438763,293,461,462
438764,306,461,461
438765,319,460,461
438766,329,461,461
438767,340,461,461
438768,348,459,461
438769,355,461,461
438770,254,461,464
438771,2,461,461
438772,75,461,462
438773,98,461,461
438774,115,460,461
438775,135,461,461
438776,150,460,462
438777,171,461,462
438778,192,461,462
438779,208,461,461
438780,231,462,463
438781,249,459,462
438782,268,462,461
438783,285,460,463
438784,302,460,460
438785,317,461,462
438786,329,461,462
438787,341,460,462
438788,351,461,462
438789,359,461,462
438790,201,457,459
438791,5,461,464
438792,47,462,463
438793,83,460,462
438794,104,460,462
438795,126,459,463
438796,147,460,460
438797,170,460,461
438798,191,459,462
438799,213,460,462
438800,235,460,460
438801,254,459,461
438802,276,462,463
438803,298,462,461
438804,315,460,460
438805,333,461,461
438806,346,462,462
438807,360,460,463
438808,373,461,463
438809,382,461,460
438810,168,459,461
438811,4,461,462
438812,2,460,462
438813,82,461,461
438814,108,460,462
438815,133,462,462
438816,161,459,462
438817,192,459,463
438818,215,464,461
438819,242,460,462
438820,267,462,463
438821,291,461,461
438822,316,460,464
438823,337,460,463
438824,359,460,460
438825,379,461,461
438826,395,459,461
438827,411,460,463
438828,423,461,461
438829,439,461,458
438830,189,458,462
438831,4,462,463
438832,1,457,460
438833,85,461,462
438834,116,462,464
438835,149,462,463
438836,178,461,462
438837,212,460,461
438838,247,460,467
438839,280,461,459
438840,312,461,460
438841,345,460,462
438842,376,460,461
438843,405,462,460
438844,431,459,462
438845,454,461,461
438846,476,461,458
438847,498,458,461
438848,515,459,461
438849,530,459,461
438850,190,462,461
438851,4,460,462
438852,1,461,461
438853,74,458,462
438854,119,461,461
438855,157,460,462
438856,195,461,461
438857,233,459,462
438858,269,460,462
438859,305,458,462
438860,343,460,462
438861,376,459,461
438862,411,460,461
438863,446,461,462
438864,480,461,462
438865,514,459,462
438866,544,458,460
438867,573,460,462
438868,600,460,461
438869,588,460,459
438870,167,460,462
438871,8,462,462
438872,3,460,462
438873,65,460,461
438874,125,460,463
438875,169,461,459
438876,217,461,462
438877,260,461,461
438878,306,459,462
438879,351,461,461
438880,396,460,462
438881,440,461,462
438882,481,461,459
438883,526,459,461
438884,562,461,460
438885,600,460,461
438886,632,461,461
438887,663,461,461
438888,688,462,461
438889,602,459,462
438890,83,459,462
438891,7,460,462
438892,2,460,462
438893,0,458,463
438894,122,460,462
438895,183,460,459
438896,242,458,462
438897,300,460,462
438898,355,462,459
438899,412,460,462
438900,463,460,460
438901,514,461,462
438902,563,460,462
438903,614,460,460
438904,664,460,461
438905,705,460,460
438906,745,457,460
438907,781,460,461
438908,812,460,463
438909,635,460,462
438910,81,460,460
438911,6,459,462
438912,1,460,461
438913,4,460,461
438914,116,461,462
438915,183,461,461
438916,248,458,462
438917,309,462,461
438918,375,461,460
438919,438,461,460
438920,507,460,461
438921,572,459,462
438922,634,461,462
438923,690,458,461
438924,743,460,463
438925,791,460,460
438926,836,459,462
438927,877,460,463
438928,912,460,461
438929,627,459,461
438930,35,460,461
438931,8,461,460
438932,3,462,461
438933,1,460,462
438934,122,462,463
438935,218,462,461
438936,299,460,463
438937,382,461,461
438938,467,460,462
438939,548,462,460
438940,622,460,462
438941,693,460,462
438942,760,460,459
438943,820,459,461
438944,872,460,460
438945,923,460,461
438946,970,459,460
438947,1016,460,461
438948,1023,460,462
438949,648,460,461
438950,66,460,461
438951,8,457,461
438952,3,459,462
438953,0,460,463
438954,129,461,459
438955,234,460,461
438956,324,461,462
438957,411,462,461
438958,494,461,460
438959,582,460,460
438960,666,461,462
438961,746,462,459
438962,821,458,463
438963,895,460,460
438964,968,460,461
438965,1023,460,461
438966,1023,461,460
438967,744,462,461
438968,744,460,458
438969,703,457,460
438970,189,459,460
438971,9,462,461
438972,2,460,462
438973,0,460,461
438974,141,459,461
438975,255,458,461
438976,361,460,463
438977,460,460,458
438978,564,457,460
438979,660,462,461
438980,757,458,461
438981,847,459,459
438982,933,458,460
438983,1013,458,460
438984,1023,461,459
438985,736,457,461
1741019023347,NEW REP,,
438986,746,458,460
438987,754,481,478
438988,755,480,480
438989,826,461,461
438990,282,460,463
438991,13,460,463
438992,5,460,461
438993,1,459,462
438994,155,461,462
438995,281,462,462
438996,388,460,459
438997,498,460,459
438998,608,460,462
438999,713,461,459
439000,817,459,461
439001,913,460,462
439002,1007,461,461
439003,1023,460,460
439004,738,460,461
439005,751,464,463
439006,753,481,478
439007,755,481,479
439008,753,482,479
439009,949,461,463
439010,335,459,462
439011,13,460,460
439012,5,460,460
439013,3,460,458
439014,174,461,460
439015,315,460,459
439016,439,459,460
439017,557,461,462
439018,671,460,460
439019,785,459,460
439020,886,460,460
439021,982,460,460
439022,1023,461,461
439023,751,461,460
439024,749,459,459
439025,754,481,480
439026,755,482,479
439027,755,482,480
439028,755,481,479
439029,1023,461,462
439030,417,461,461
439031,17,459,462
439032,5,460,460
439033,3,461,457
439034,185,461,460
439035,319,460,461
439036,438,459,461
439037,556,460,460
439038,674,460,460
439039,781,461,458
439040,890,460,461
439041,997,459,462
439042,1023,459,461
439043,741,459,461
439044,755,480,478
439045,754,482,480
439046,756,481,479
439047,755,481,479
439048,754,482,479
439049,748,462,461
439050,629,459,461
439051,115,460,461
439052,11,461,460
439053,2,461,462
439054,209,461,462
439055,356,461,463
439056,478,459,462
439057,603,461,459
439058,728,460,462
439059,843,460,460
439060,950,458,460
439061,1023,459,460
439062,850,461,464
439063,748,459,460
439064,754,481,479
439065,756,480,479
439066,754,481,478
439067,754,481,478
439068,754,482,477
439069,755,482,477
439070,855,462,463
439071,239,461,462
439072,11,459,460
439073,5,461,461
439074,256,461,461
439075,395,461,463
439076,525,461,461
439077,656,460,462
439078,774,462,462
439079,883,460,458
439080,988,456,460
439081,1023,459,461
439082,736,460,462
439083,751,466,470
439084,753,479,479
439085,754,481,476
439086,755,480,481
439087,754,479,478
439088,755,483,481
439089,754,479,479
439090,1023,460,462
439091,394,459,460
439092,15,461,462
439093,109,460,459
439094,368,460,460
439095,485,460,462
439096,604,461,459
439097,709,460,460
439098,811,460,461
439099,907,460,461
439100,999,459,461
439101,1023,460,458
439102,738,460,462
439103,752,472,476
439104,755,481,478
439105,754,480,477
439106,753,483,478
439107,753,479,478
439108,754,481,479
439109,754,483,477
439110,754,482,477
439111,580,460,463
439112,234,459,463
439113,473,462,461
439114,660,457,460
439115,766,461,462
439116,868,460,462
439117,961,458,460
439118,1023,459,460
439119,949,461,462
439120,746,456,460
439121,754,477,480
439122,754,481,479
439123,754,482,478
439124,754,481,477
439125,754,480,478
439126,755,482,478
439127,755,480,479
439128,755,481,478
439129,755,482,478
439130,754,479,479
439131,732,459,463
439132,409,460,462
439133,712,457,461
439134,800,459,461
439135,889,460,459
439136,979,460,460
439137,1023,460,462
439138,956,464,462
439139,745,460,461
439140,754,481,477
439141,755,479,478
439142,754,480,479
439143,754,480,478
439144,754,481,480
439145,754,481,479
439146,754,480,478
439147,753,481,479
439148,755,482,479
439149,754,481,478
439150,753,478,478
439151,850,460,461
439152,542,461,462
439153,842,459,461
439154,927,456,462
439155,1009,458,461
439156,1023,459,459
439157,737,460,461
439158,747,459,459
439159,755,481,479
439160,754,480,478
439161,755,481,479
439162,754,480,479
439163,753,481,478
439164,754,482,478
439165,755,481,479
439166,755,478,477
439167,755,481,478
439168,754,481,480
439169,755,480,478
439170,755,481,478
439171,945,461,460
439172,650,460,461
439173,922,460,461
439174,997,460,459
439175,1023,460,459
439176,872,461,462
439177,743,458,462
439178,753,472,473
439179,754,482,479
439180,754,482,480
439181,755,482,478
439182,755,482,478
439183,754,481,479
439184,755,479,480
439185,753,482,478
439186,754,482,478
439187,754,480,478
439188,755,481,479
439189,754,481,478
439190,755,481,478
439191,939,460,460
439192,626,459,461
439193,884,459,462
439194,936,460,461
439195,996,458,460
439196,1023,459,460
439197,1023,459,459
439198,773,459,460
439199,743,460,461
439200,751,463,463
439201,754,481,478
439202,754,480,479
439203,755,481,478
439204,755,480,478
439205,754,481,476
439206,753,480,478
439207,753,480,478
439208,754,482,477
439209,755,482,479
439210,754,479,478
439211,899,460,462
439212,557,459,461
439213,813,459,460
439214,876,459,459
439215,940,458,460
439216,1001,458,461
439217,1023,460,461
439218,1023,457,459
439219,736,458,460
439220,745,460,461
439221,751,465,465
439222,754,481,479
439223,755,480,482
439224,754,481,479
439225,754,481,478
439226,755,482,479
439227,754,481,481
439228,754,482,479
439229,754,480,477
439230,754,481,480
439231,903,460,463
439232,509,460,462
439233,768,459,461
439234,830,459,462
439235,887,461,459
439236,949,459,462
439237,1007,458,461
439238,1023,459,461
439239,1023,460,459
439240,736,460,461
439241,745,459,459
439242,752,466,468
439243,754,481,478
439244,753,481,478
439245,755,482,479
439246,756,479,479
439247,755,482,480
439248,754,480,478
439249,754,482,477
439250,756,481,480
439251,927,461,462
439252,491,460,460
439253,726,460,461
439254,803,460,461
439255,854,460,461
439256,904,461,459
439257,953,455,461
439258,1003,460,461
439259,1023,460,459
439260,1023,460,459
439261,828,461,462
439262,742,458,461
439263,749,460,460
439264,754,480,479
439265,754,481,478
439266,755,479,477
439267,754,481,479
439268,754,480,478
439269,755,483,479
439270,753,482,477
439271,933,460,461
439272,501,462,459
439273,728,460,461
439274,815,457,462
439275,861,461,461
439276,915,460,462
439277,967,459,462
439278,1012,459,459
439279,1023,459,462
439280,1023,460,460
439281,991,469,463
439282,736,460,461
439283,743,459,461
439284,748,457,461
439285,753,477,479
439286,755,481,478
439287,755,482,478
439288,754,482,477
439289,755,480,479
439290,754,480,478
439291,975,459,461
439292,505,460,461
439293,720,460,461
439294,799,459,459
439295,844,460,460
439296,887,459,462
439297,928,462,461
439298,967,460,458
439299,1013,460,460
439300,1023,459,460
439301,1023,459,460
439302,1007,472,466
439303,736,461,460
439304,743,460,460
439305,748,460,459
439306,753,473,474
439307,754,481,478
439308,754,481,479
439309,754,481,478
439310,754,479,478
439311,1023,459,461
439312,601,459,462
439313,770,459,461
439314,832,460,460
439315,871,456,460
439316,913,460,461
439317,949,459,460
439318,995,460,459
439319,1023,457,460
439320,1023,460,461
439321,1023,460,462
439322,791,460,462
439323,739,458,462
439324,745,460,461
439325,749,458,460
439326,754,472,474
439327,754,481,479
439328,754,481,477
439329,755,482,477
439330,754,481,478
439331,1006,472,465
439332,698,463,463
439333,888,459,462
439334,932,460,461
439335,969,460,462
439336,1009,461,462
439337,1023,463,461
439338,1023,461,460
439339,1023,486,466
439340,870,461,459
439341,737,458,460
439342,744,459,460
439343,748,458,460
439344,753,472,472
439345,754,480,477
439346,752,479,478
439347,753,481,479
439348,754,483,475
439349,754,480,480
439350,754,482,478
439351,740,459,462
439352,791,460,462
439353,965,460,462
439354,992,458,462
439355,1023,459,462
439356,1023,461,460
439357,1023,459,461
439358,1023,485,462
439359,763,460,460
439360,739,460,458
439361,746,459,461
439362,750,460,461
439363,754,481,477
439364,754,484,479
439365,754,480,479
439366,755,480,478
439367,753,479,477
439368,755,481,477
439369,754,482,478
439370,753,481,478
439371,747,461,461
439372,874,460,462
439373,1023,461,459
439374,1023,460,461
439375,1023,461,460
439376,1023,484,463
439377,768,460,460
439378,738,460,461
439379,745,459,461
439380,748,459,460
439381,751,465,468
439382,754,481,476
439383,753,482,480
439384,754,480,478
439385,753,481,478
439386,755,480,479
439387,753,482,479
439388,754,479,478
439389,753,480,478
439390,754,482,479
439391,754,460,460
439392,896,461,460
439393,1023,460,459
439394,1023,457,460
439395,1023,460,460
439396,1023,457,461
439397,1023,474,465
439398,787,460,462
439399,737,460,461
439400,740,461,460
439401,745,460,461
439402,748,459,459
439403,750,463,463
439404,754,479,477
439405,753,481,479
439406,754,482,478
439407,754,481,476
439408,754,481,477
439409,753,480,479
439410,755,481,479
439411,754,482,480
439412,1023,459,462
439413,740,459,462
439414,744,457,461
439415,747,458,460
439416,748,459,460
439417,751,461,461
439418,753,477,475
439419,753,482,476
439420,754,481,479
439421,754,480,478
439422,753,480,479
439423,754,482,479
439424,754,480,478
439425,754,480,479
439426,754,481,479
439427,753,482,477
439428,754,481,477
439429,754,479,480
439430,756,479,480
439431,753,478,480
439432,754,484,474
439433,754,480,478
439434,753,481,478
439435,755,480,479
439436,754,481,479
439437,755,480,478
439438,753,480,477
439439,754,478,477
439440,756,481,478
439441,753,479,479
439442,754,480,479
439443,753,480,480
439444,754,478,480
439445,755,481,478
439446,755,481,478
439447,754,482,478
439448,754,479,478
439449,754,480,476
439450,754,482,478
439451,754,481,479
439452,754,481,480
439453,755,480,480
439454,755,480,478
439455,755,479,478
439456,754,480,479
439457,753,481,478
439458,755,479,479
439459,753,479,478
439460,753,480,478
439461,755,482,478
439462,753,481,478
439463,754,482,478
439464,753,482,479
439465,753,479,478
439466,755,479,478
439467,754,480,479
439468,754,481,477
439469,754,479,478
439470,753,480,479
439471,753,481,478
439472,754,481,477
439473,754,479,479
439474,754,479,479
439475,753,476,477
439476,753,472,477
439477,753,474,473
439478,753,474,474
439479,752,475,473
439480,755,477,477
439481,755,481,479
439482,753,480,478
439483,754,479,479
439484,754,481,480
439485,755,481,479
439486,754,480,477
439487,754,479,479
439488,755,480,477
439489,755,479,480
439490,754,480,478
439491,754,475,473
439492,748,460,461
439493,751,461,464
439494,750,461,463
439495,749,460,461
439496,750,459,463
439497,751,462,462
439498,750,458,462
439499,750,458,462
439500,751,463,461
439501,751,464,463
439502,751,465,464
439503,750,463,462
439504,751,464,465
439505,751,466,465
439506,752,466,465
439507,751,464,467
439508,750,465,468
439509,752,465,467
439510,751,464,466
439511,750,462,464
439512,748,460,462
439513,749,461,461
439514,749,458,458
439515,747,459,460
439516,745,459,459
439517,745,459,462
439518,744,460,458
439519,744,460,461
439520,746,459,461
439521,746,459,461
439522,746,460,457
439523,747,460,460
439524,747,461,461
439525,746,457,459
439526,746,460,460
439527,746,460,461
439528,744,460,461
439529,743,460,460
439530,742,461,461
439531,739,459,461
439532,750,460,463
439533,736,459,461
439534,738,459,462
439535,740,460,461
439536,755,460,461
439537,770,461,458
439538,768,456,462
439539,774,459,463
439540,824,461,463
439541,860,462,460
439542,940,462,465
439543,975,467,465
439544,1023,476,465
439545,1023,483,464
439546,1023,482,467
439547,1023,487,464
439548,1023,486,466
439549,1023,483,463
439550,1023,469,464
439551,1023,461,463
439552,1023,461,462
439553,1023,460,463
439554,1023,460,462
439555,1023,459,460
439556,1023,461,461
439557,1023,460,462
439558,1023,459,460
439559,1023,461,461
439560,1020,462,461
439561,1011,461,461
439562,1010,459,463
439563,1006,462,461
439564,1007,460,462
439565,1008,460,462
439566,1006,457,461
439567,1002,460,462
439568,999,457,461
439569,991,461,461
439570,982,462,460
439571,972,462,462
439572,907,460,464
439573,923,461,461
439574,911,460,462
439575,899,460,460
439576,888,460,463
439577,879,462,460
439578,880,459,462
439579,884,459,462
439580,890,461,462
439581,895,461,462
439582,902,459,462
439583,910,462,462
439584,915,460,462
439585,914,461,462
439586,899,461,462
439587,883,462,461
439588,868,459,462
439589,845,460,462
439590,828,457,462
439591,820,460,462
439592,740,461,463
439593,776,460,463
439594,784,460,462
439595,790,460,460
439596,801,460,461
439597,807,462,461
439598,815,461,460
439599,822,458,461
439600,829,462,460
439601,836,459,462
439602,838,459,462
439603,839,461,462
439604,838,458,461
439605,837,461,463
439606,830,461,463
439607,827,460,461
439608,820,458,462
439609,812,460,462
439610,800,459,462
439611,789,460,463
439612,756,460,462
439613,737,462,460
439614,728,461,463
439615,715,460,462
439616,710,460,463
439617,702,461,464
439618,698,460,462
439619,698,461,461
439620,694,462,461
439621,697,461,461
439622,699,460,462
439623,697,457,461
439624,694,460,462
439625,693,460,462
439626,688,461,461
439627,683,460,462
439628,680,460,463
439629,676,461,462
439630,674,459,460
439631,668,462,463
439632,616,460,463
439633,631,461,462
439634,629,460,460
439635,624,460,460
439636,621,461,460
439637,616,461,462
439638,612,461,461
439639,608,461,462
439640,606,460,462
439641,603,459,461
439642,607,460,462
439643,608,457,461
439644,611,459,461
439645,612,459,461
439646,613,462,462
439647,614,457,460
439648,612,461,461
439649,611,462,462
439650,606,460,462
439651,600,461,462
439652,549,462,461
439653,555,462,462
439654,543,460,462
439655,528,462,460
439656,518,460,461
439657,508,459,461
439658,502,461,461
439659,501,459,462
439660,504,456,462
439661,509,462,460
439662,518,459,461
439663,525,460,461
439664,528,461,461
439665,527,461,458
439666,528,460,461
439667,528,459,461
439668,523,460,460
439669,520,460,461
439670,515,461,463
439671,508,460,462
439672,475,459,460
439673,463,461,461
439674,449,461,462
439675,434,462,460
439676,422,462,460
439677,414,457,462
439678,412,457,463
439679,418,461,462
439680,424,459,462
439681,432,461,462
439682,442,461,461
439683,455,460,463
439684,470,461,461
439685,478,460,462
439686,486,461,462
439687,489,460,461
439688,493,461,461
439689,487,461,461
439690,486,460,462
439691,483,461,464
439692,442,457,462
439693,429,462,461
439694,423,460,463
439695,419,460,462
439696,417,462,462
439697,416,459,462
439698,410,460,463
439699,410,460,462
439700,407,459,463
439701,401,460,459
439702,395,461,460
439703,391,461,462
439704,390,461,462
439705,386,461,462
439706,387,462,462
439707,387,460,462
439708,387,459,463
439709,391,458,462
439710,396,459,462
439711,398,460,461
439712,347,461,460
439713,340,460,462
439714,338,460,461
439715,335,461,460
439716,331,460,462
439717,326,463,462
439718,326,460,462
439719,325,461,462
439720,325,461,462
439721,325,460,460
439722,326,459,461
439723,326,459,461
439724,328,461,462
439725,329,460,462
439726,333,463,462
439727,334,460,460
439728,333,460,461
439729,331,461,461
439730,330,460,463
439731,327,461,461
439732,228,457,462
439733,200,460,462
439734,224,460,461
439735,225,460,463
439736,226,461,462
439737,228,460,462
439738,231,461,461
439739,237,461,462
439740,243,460,462
439741,251,459,462
439742,257,460,462
439743,262,461,462
439744,265,460,462
439745,269,460,462
439746,274,460,460
439747,276,460,462
439748,277,462,461
439749,278,459,462
439750,274,459,462
439751,268,461,462
439752,141,461,459
439753,56,460,462
439754,102,461,460
439755,98,460,460
439756,99,460,459
439757,105,461,462
439758,116,459,462
439759,131,459,462
439760,147,460,462
439761,163,458,461
439762,175,460,460
439763,186,460,463
439764,195,461,460
439765,204,461,462
439766,209,461,462
439767,213,459,461
439768,216,460,462
439769,219,460,459
439770,216,460,461
439771,216,460,460
439772,137,459,460
439773,5,460,462
439774,82,459,462
439775,88,460,460
439776,95,460,461
439777,101,456,461
439778,115,461,458
439779,118,460,461
439780,127,458,461
439781,136,459,461
439782,144,460,462
439783,153,459,461
439784,162,459,460
439785,169,461,462
439786,174,460,461
439787,181,459,461
439788,184,457,461
439789,187,460,462
439790,188,460,462
439791,192,460,461
439792,98,461,460
439793,2,458,461
439794,63,460,463
439795,67,460,460
439796,76,461,461
439797,81,456,465
439798,88,460,461
439799,95,460,460
439800,105,460,460
439801,114,457,459
439802,121,459,463
439803,133,460,461
439804,140,459,458
439805,147,459,463
439806,153,460,459
439807,162,460,462
439808,167,458,461
439809,171,459,462
439810,173,459,459
439811,175,460,462
439812,96,457,461
439813,1,460,461
439814,54,459,462
439815,63,460,461
439816,70,460,462
439817,77,460,462
439818,82,460,459
439819,93,461,459
439820,104,461,462
439821,112,460,461
439822,121,461,461
439823,132,462,462
439824,140,459,461
439825,151,459,462
439826,158,459,460
439827,166,461,462
439828,172,458,462
439829,176,459,461
439830,179,459,461
439831,182,460,462
439832,139,460,462
439833,1,460,461
439834,68,458,462
439835,76,461,462
439836,84,461,459
439837,91,459,461
439838,99,461,459
439839,109,459,460
439840,119,457,461
439841,131,459,462
439842,143,461,462
439843,153,459,463
439844,162,460,462
439845,172,461,462
439846,181,461,462
439847,186,461,460
439848,193,463,461
439849,198,460,461
439850,203,460,461
439851,203,461,458
439852,197,460,462
439853,93,461,460
439854,146,457,463
439855,152,462,461
439856,157,460,462
439857,168,460,462
439858,176,460,461
439859,186,460,463
439860,195,461,463
439861,206,460,463
439862,214,460,462
439863,226,460,460
439864,235,460,462
439865,242,460,458
439866,251,460,461
439867,256,458,462
439868,258,461,463
439869,263,460,462
439870,267,461,464
439871,267,461,461
439872,272,459,461
439873,265,460,462
439874,266,461,462
439875,267,462,461
439876,272,461,462
439877,276,462,462
439878,282,460,463
439879,291,461,462
439880,299,461,463
439881,308,456,462
439882,316,460,462
439883,323,461,460
439884,332,459,461
439885,338,462,460
439886,343,459,461
439887,348,460,462
439888,353,460,462
439889,352,460,461
439890,357,460,462
439891,355,460,461
439892,354,460,462
439893,353,461,462
439894,351,460,461
439895,348,459,460
439896,347,461,461
439897,346,461,462
439898,346,457,463
439899,348,461,462
439900,353,460,461
439901,357,461,460
439902,365,460,461
439903,374,458,463
439904,380,462,462
439905,386,460,462
439906,392,460,462
439907,394,462,461
439908,394,461,463
439909,393,458,462
439910,390,459,462
439911,386,461,461
439912,383,458,461
439913,380,461,462
439914,380,461,461
439915,379,461,462
439916,380,460,459
439917,384,462,460
439918,385,461,460
439919,389,461,463
439920,393,460,460
439921,399,459,462
439922,404,461,460
439923,406,459,462
439924,407,460,460
439925,402,462,463
439926,403,460,461
439927,401,460,464
439928,398,462,462
439929,391,461,458
439930,390,462,461
439931,387,462,463
439932,389,460,462
439933,388,460,460
439934,384,460,459
439935,387,461,462
439936,386,460,461
439937,387,460,463
439938,386,459,460
439939,388,457,462
439940,390,459,463
439941,395,461,461
439942,398,461,459
439943,404,461,462
439944,409,459,460
439945,414,458,462
439946,418,460,462
439947,415,460,463
439948,414,461,461
439949,411,460,461
439950,409,459,461
439951,405,461,462
439952,402,461,462
439953,400,461,461
439954,397,461,463
439955,395,460,462
439956,393,460,461
439957,394,460,459
439958,392,460,462
439959,395,462,459
439960,395,460,461
439961,399,460,461
439962,397,459,460
439963,401,460,461
439964,405,460,462
439965,407,462,461
439966,410,457,461
439967,416,461,462
439968,418,461,461
439969,421,462,462
439970,418,461,460
439971,414,458,461
439972,414,461,462
439973,410,460,460
439974,411,460,462
439975,411,461,462
439976,412,462,458
439977,414,460,462
439978,418,460,461
439979,419,462,459
439980,427,459,462
439981,431,461,461
439982,435,462,461
439983,437,461,460
439984,443,460,459
439985,446,460,461
439986,450,461,460
439987,453,459,461
439988,454,460,459
439989,455,459,460
439990,453,462,460
439991,447,461,461
439992,445,461,459
439993,442,461,463
439994,438,462,462
439995,435,461,462
439996,432,460,461
439997,430,462,460
439998,428,461,462
439999,432,460,461
440000,435,460,461
440001,439,460,462
440002,447,461,461
440003,455,462,461
440004,463,461,460
440005,469,461,462
440006,474,460,460
440007,473,462,460
440008,470,461,459
440009,460,462,460
440010,462,462,461
440011,459,462,461
440012,456,461,461
440013,457,462,461
440014,459,461,462
440015,462,460,458
440016,463,460,462
440017,463,460,458
440018,463,461,461
440019,463,462,460
440020,470,461,461
440021,476,459,462
440022,485,461,462
440023,489,460,457
440024,497,459,461
440025,500,461,461
440026,500,460,462
440027,503,459,461
440028,498,461,462
440029,499,461,462
440030,495,461,461
440031,494,461,461
440032,489,460,459
440033,486,460,462
440034,482,459,461
440035,478,462,462
440036,476,460,462
440037,470,458,462
440038,466,460,462
440039,466,460,462
440040,466,460,461
440041,467,460,462
440042,466,459,461
440043,464,462,462
440044,460,461,461
440045,460,460,462
440046,461,461,462
440047,462,460,457
440048,464,459,462
440049,463,456,460
440050,459,461,462
440051,455,458,460
440052,451,459,463
440053,445,461,460
440054,439,460,461
440055,439,461,462
440056,436,460,461
440057,439,461,462
440058,438,461,462
440059,438,461,462
440060,436,460,462
440061,435,459,461
440062,432,460,459
440063,433,461,461
440064,429,461,459
440065,422,461,462
440066,415,460,462
440067,408,459,462
440068,398,461,462
440069,392,457,461
440070,386,461,462
440071,384,461,462
440072,384,459,462
440073,385,461,462
440074,383,461,462
440075,379,462,462
440076,374,460,461
440077,370,461,460
440078,365,462,461
440079,360,461,460
440080,354,461,463
440081,352,460,461
440082,350,459,462
440083,346,460,462
440084,346,462,461
440085,347,459,462
440086,348,461,461
440087,352,459,463
440088,349,460,461
440089,347,459,462
440090,342,462,461
440091,331,459,462
440092,322,460,461
440093,312,461,463
440094,298,461,461
440095,289,461,461
440096,282,461,462
440097,278,461,459
440098,274,461,462
440099,276,461,461
440100,281,461,462
440101,287,458,461
440102,291,461,462
440103,296,461,461
440104,300,460,462
440105,300,460,461
440106,304,459,461
440107,305,460,463
440108,303,461,462
440109,302,460,462
440110,298,461,463
440111,287,461,461
440112,277,459,459
440113,264,460,462
440114,248,461,462
440115,237,461,461
440116,226,460,461
440117,218,459,461
440118,212,460,462
440119,208,460,463
440120,212,461,461
440121,215,462,461
440122,224,461,461
440123,230,460,462
440124,234,460,460
440125,238,462,463
440126,238,458,462
440127,239,461,461
440128,233,461,463
440129,235,460,461
440130,236,464,462
440131,237,459,462
440132,236,459,461
440133,236,460,463
440134,233,459,463
440135,228,461,460
440136,222,461,463
440137,217,461,463
440138,212,462,461
440139,206,459,463
440140,197,461,462
440141,199,460,462
440142,196,460,462
440143,197,460,463
440144,197,461,461
440145,198,459,461
440146,194,460,463
440147,193,461,460
440148,193,459,461
440149,195,461,463
440150,198,461,462
440151,202,460,462
440152,207,460,462
440153,209,461,461
440154,213,460,462
440155,217,460,462
440156,224,460,462
440157,228,461,462
440158,241,462,462
440159,247,461,459
440160,260,460,461
440161,266,460,461
440162,271,461,460
440163,272,461,462
440164,274,460,462
440165,269,460,460
440166,260,459,462
440167,250,462,460
440168,239,461,461
440169,228,462,464
440170,222,461,463
440171,216,460,463
440172,218,456,463
440173,223,462,462
440174,237,460,461
440175,252,460,462
440176,264,458,461
440177,274,460,461
440178,284,460,462
440179,294,460,460
440180,302,460,463
440181,312,461,462
440182,321,461,462
440183,329,460,463
440184,335,461,462
440185,344,460,461
440186,351,460,462
440187,356,461,464
440188,359,462,458
440189,364,460,461
440190,363,461,464
440191,362,462,460
440192,359,462,462
440193,357,461,460
440194,356,460,462
440195,354,460,461
440196,353,459,462
440197,356,461,463
440198,357,460,459
440199,364,459,462
440200,370,460,462
440201,379,460,462
440202,386,460,461
440203,388,460,461
440204,393,461,462
440205,393,460,463
440206,398,461,463
440207,399,460,462
440208,402,462,461
440209,406,460,462
440210,408,462,461
440211,414,461,461
440212,412,460,461
440213,413,460,462
440214,410,460,462
440215,408,460,461
440216,405,461,461
440217,405,459,460
440218,403,459,463
440219,403,461,462
440220,413,460,461
440221,421,460,461
440222,431,460,462
440223,439,460,462
440224,452,460,460
440225,461,460,461
440226,469,459,461
440227,476,459,461
440228,480,461,461
440229,483,460,464
440230,482,459,459
440231,483,461,461
440232,485,462,464
440233,487,460,460
440234,485,458,463
440235,486,461,462
440236,485,461,461
440237,484,460,461
440238,482,460,461
440239,487,462,462
440240,490,460,461
440241,492,460,459
440242,500,462,462
440243,504,460,461
440244,510,457,460
440245,512,461,461
440246,514,461,459
440247,515,461,462
440248,512,457,461
440249,506,460,461
440250,502,461,462
440251,497,460,462
440252,492,457,461
440253,480,461,462
440254,481,458,460
440255,475,460,460
440256,471,461,461
440257,465,459,459
440258,466,461,463
440259,464,459,462
440260,463,462,459
440261,470,460,461
440262,472,459,459
440263,479,461,461
440264,480,459,462
440265,484,461,461
440266,483,459,461
440267,481,461,460
440268,479,460,462
440269,473,460,462
440270,468,460,463
440271,458,460,462
440272,450,460,461
440273,441,460,463
440274,430,460,463
440275,421,461,462
440276,414,460,461
440277,402,461,462
440278,399,460,461
440279,393,460,462
440280,389,463,461
440281,386,461,463
440282,384,461,461
440283,378,461,459
440284,374,460,462
440285,372,460,460
440286,366,460,462
440287,365,461,462
440288,358,459,460
440289,355,462,459
440290,351,459,460
440291,345,460,460
440292,338,460,461
440293,328,461,462
440294,323,460,463
440295,312,461,461
440296,304,462,461
440297,296,458,460
440298,287,461,462
440299,276,460,462
440300,272,462,459
440301,268,462,462
440302,262,459,462
440303,255,463,461
440304,248,459,463
440305,240,461,461
440306,230,459,462
440307,224,461,462
440308,214,460,462
440309,207,457,462
440310,199,461,463
440311,192,460,462
440312,183,460,461
440313,183,460,461
440314,172,459,461
440315,166,459,462
440316,162,462,462
440317,159,460,461
440318,155,460,463
440319,151,459,461
440320,148,462,461
440321,148,460,463
440322,148,462,461
440323,146,460,463
440324,147,461,462
440325,143,462,464
440326,138,461,460
440327,132,461,462
440328,124,458,460
440329,114,463,462
440330,103,462,463
440331,92,460,462
440332,84,460,463
440333,63,460,463
440334,47,461,463
440335,42,460,462
440336,40,463,462
440337,37,461,462
440338,36,461,459
440339,35,461,462
440340,35,458,462
440341,35,461,460
440342,33,460,463
440343,34,460,463
440344,33,460,462
440345,32,462,462
440346,34,462,463
440347,35,460,463
440348,34,460,462
440349,37,462,461
440350,32,461,462
440351,32,459,461
440352,30,460,461
440353,3,460,462
440354,1,460,461
440355,1,459,461
440356,3,459,462
440357,1,461,462
440358,3,457,462
440359,5,462,462
440360,11,461,461
440361,14,462,463
440362,19,459,463
440363,24,460,463
440364,28,461,464
440365,33,460,462
440366,38,459,461
440367,39,461,462
440368,42,459,460
440369,41,460,462
440370,38,461,461
440371,38,460,462
440372,34,461,459
440373,11,461,461
440374,1,459,462
440375,1,459,461
440376,1,462,462
440377,2,462,460
440378,4,461,461
440379,9,463,461
440380,13,461,462
440381,20,460,462
440382,27,460,462
440383,33,458,461
440384,38,460,462
440385,41,460,464
440386,44,460,460
440387,49,462,463
440388,49,461,462
440389,49,460,461
440390,47,462,461
440391,48,461,463
440392,45,461,459
440393,4,460,462
440394,3,461,462
440395,11,462,463
440396,12,462,461
440397,14,462,462
440398,16,461,461
440399,23,460,462
440400,31,460,462
440401,39,461,463
440402,47,462,461
440403,56,460,462
440404,67,462,462
440405,75,462,460
440406,83,461,462
440407,91,460,463
440408,99,457,462
440409,101,461,460
440410,104,461,462
440411,106,460,462
440412,106,462,461
440413,37,461,462
440414,2,460,464
440415,28,458,461
440416,30,462,462
440417,37,461,464
440418,42,461,462
440419,46,460,462
440420,53,461,462
440421,61,461,463
440422,69,462,459
440423,77,462,461
440424,87,461,461
440425,94,463,460
440426,102,458,462
440427,109,460,462
440428,111,458,461
440429,120,461,462
440430,121,462,461
440431,125,462,461
440432,125,461,463
440433,46,461,462
440434,1,461,459
440435,34,462,462
440436,38,461,462
440437,46,461,464
440438,52,462,460
440439,61,460,461
440440,68,461,462
440441,78,460,464
440442,86,461,462
440443,98,461,460
440444,104,460,460
440445,114,460,462
440446,121,462,461
440447,129,463,462
440448,134,463,460
440449,139,461,463
440450,141,463,462
440451,144,459,462
440452,144,462,461
440453,5,461,463
440454,2,461,459
440455,21,460,461
440456,38,462,462
440457,45,461,461
440458,57,461,462
440459,66,460,462
440460,76,461,463
440461,88,461,462
440462,101,459,462
440463,111,462,462
440464,125,461,461
440465,140,462,462
440466,150,463,461
440467,159,460,462
440468,166,461,460
440469,174,460,462
440470,178,462,460
440471,183,461,462
440472,185,462,461
440473,4,461,462
440474,2,463,462
440475,25,461,459
440476,42,461,462
440477,56,460,461
440478,70,460,462
440479,82,460,458
440480,98,460,462
440481,116,461,461
440482,131,458,461
440483,148,461,462
440484,162,459,461
440485,177,461,461
440486,191,462,462
440487,205,461,462
440488,220,461,459
440489,229,462,461
440490,238,461,462
440491,245,460,462
440492,251,459,462
440493,7,459,461
440494,3,461,463
440495,35,461,459
440496,59,461,463
440497,80,462,462
440498,96,461,463
440499,118,461,461
440500,136,461,462
440501,156,460,462
440502,178,460,463
440503,200,459,462
440504,222,462,462
440505,240,461,462
440506,259,462,461
440507,277,462,461
440508,292,460,462
440509,305,462,462
440510,319,462,461
440511,332,460,461
440512,343,461,461
440513,87,461,462
440514,2,462,461
440515,22,460,461
440516,81,460,463
440517,105,459,462
440518,125,460,464
440519,147,461,462
440520,174,461,462
440521,201,459,462
440522,225,461,462
440523,250,460,461
440524,276,461,461
440525,299,461,461
440526,322,459,461
440527,345,461,462
440528,364,459,461
440529,381,461,462
440530,396,460,462
440531,413,461,463
440532,427,462,462
440533,179,461,462
440534,6,461,459
440535,27,460,463
440536,106,461,462
440537,133,462,463
440538,163,460,462
440539,191,462,461
440540,219,462,462
440541,246,461,462
440542,275,461,462
440543,303,461,461
440544,328,461,461
440545,354,460,462
440546,378,460,461
440547,402,459,462
440548,423,460,460
440549,444,461,461
440550,464,459,462
440551,481,461,462
440552,497,461,462
440553,292,462,461
440554,7,462,462
440555,67,462,462
440556,132,462,460
440557,158,462,460
440558,189,461,461
440559,217,462,459
440560,249,461,460
440561,280,462,461
440562,310,462,463
440563,338,460,461
440564,367,461,461
440565,392,461,461
440566,419,461,460
440567,443,460,462
440568,464,461,463
440569,486,460,462
440570,507,461,461
440571,522,460,462
440572,541,461,461
440573,341,460,462
440574,9,460,460
440575,59,461,462
440576,149,461,462
440577,184,460,461
440578,215,462,460
440579,245,462,462
440580,275,462,461
440581,308,461,462
440582,336,461,459
440583,367,459,460
440584,395,458,461
440585,427,461,463
440586,454,460,460
440587,477,461,460
440588,504,460,461
440589,530,461,461
440590,549,461,459
440591,570,460,461
440592,589,462,461
440593,459,460,462
440594,9,460,462
440595,108,460,462
440596,188,461,462
440597,220,462,462
440598,253,462,461
440599,282,460,463
440600,312,461,459
440601,344,461,462
440602,374,460,462
440603,405,460,462
440604,434,460,462
440605,461,460,462
440606,492,462,461
440607,521,460,463
440608,544,460,462
440609,566,460,461
440610,590,463,461
440611,606,461,460
440612,625,459,460
440613,539,461,461
440614,46,461,461
440615,146,460,460
440616,218,458,461
440617,250,460,461
440618,279,461,459
440619,312,461,464
440620,342,462,462
440621,376,458,462
440622,406,461,462
440623,434,462,463
440624,468,458,462
440625,498,460,462
440626,531,459,462
440627,557,460,462
440628,585,460,462
440629,608,461,461
440630,627,461,462
440631,646,462,460
440632,662,460,462
440633,566,459,461
440634,28,459,462
440635,113,462,462
440636,207,462,463
440637,239,461,462
440638,269,459,461
440639,301,461,461
440640,333,461,462
440641,364,460,463
440642,398,462,461
440643,427,461,463
440644,455,460,463
440645,488,461,461
440646,519,460,461
440647,545,459,461
440648,569,460,461
440649,592,460,462
440650,615,461,461
440651,631,460,460
440652,651,460,461
440653,556,460,463
440654,13,460,460
440655,60,460,461
440656,181,462,462
440657,213,458,462
440658,248,462,463
440659,282,459,461
440660,313,462,460
440661,345,459,461
440662,376,462,461
440663,409,460,462
440664,441,460,462
440665,469,459,461
440666,499,460,463
440667,530,460,461
440668,555,459,462
440669,581,461,461
440670,605,459,462
440671,623,461,462
440672,644,460,460
440673,519,462,461
440674,11,459,461
440675,5,462,460
440676,151,460,464
440677,187,461,462
440678,223,461,461
440679,259,460,462
440680,294,460,461
440681,328,461,462
440682,362,459,462
440683,397,458,461
440684,431,460,462
440685,463,459,460
440686,493,461,460
440687,525,462,462
440688,552,461,461
440689,580,461,462
440690,603,461,461
440691,628,460,463
440692,650,461,462
440693,496,461,462
440694,10,459,460
440695,6,453,463
440696,133,457,463
440697,176,461,462
440698,214,459,462
440699,253,459,461
440700,290,461,462
440701,325,461,462
440702,365,460,460
440703,402,460,462
440704,438,461,463
440705,473,460,461
440706,508,462,461
440707,541,461,462
440708,571,461,460
440709,600,459,461
440710,625,460,459
440711,652,461,461
