Time (ms),Bicep,Shoulder,Tricep
,973,460,464
851015,966,459,462
851016,971,461,462
851017,863,462,464
851018,880,461,461
851019,876,460,462
851020,872,462,462
851021,868,461,462
851022,867,462,463
851023,863,462,461
851024,867,460,461
851025,869,460,463
851026,870,459,462
851027,870,461,461
851028,875,459,462
851029,877,461,462
851030,878,459,462
851031,877,462,461
851032,878,462,463
851033,877,461,462
851034,876,462,461
851035,869,461,461
851036,864,462,461
851037,648,461,463
851038,743,460,462
851039,742,459,461
851040,739,461,462
851041,742,460,461
851042,743,462,461
851043,747,462,462
851044,749,462,461
851045,751,461,461
851046,757,459,462
851047,760,460,463
851048,761,461,462
851049,763,461,459
851050,762,462,461
851051,762,462,463
851052,758,459,463
851053,757,461,460
851054,756,459,462
851055,753,463,464
851056,732,461,462
851057,529,461,462
851058,615,461,463
851059,615,462,460
851060,618,461,461
851061,617,461,462
851062,623,462,463
851063,626,463,462
851064,628,460,463
851065,635,462,461
851066,643,462,461
851067,647,462,463
851068,656,462,460
851069,657,460,461
851070,666,463,461
851071,669,459,463
851072,669,462,463
851073,669,462,463
851074,666,462,462
851075,667,460,462
851076,593,462,462
851077,406,462,462
851078,513,461,462
851079,520,463,463
851080,525,463,462
851081,528,461,461
851082,535,461,463
851083,539,461,463
851084,543,462,462
851085,549,462,463
851086,556,461,463
851087,562,461,461
851088,569,462,461
851089,577,460,462
851090,581,462,461
851091,585,462,461
851092,589,459,461
851093,587,461,463
851094,589,463,461
851095,589,462,459
851096,534,459,463
851097,325,462,463
851098,408,461,460
851099,416,462,463
851100,424,459,462
851101,433,461,463
851102,444,460,463
851103,451,462,462
851104,459,462,461
851105,464,461,463
851106,466,463,463
851107,475,459,462
851108,479,460,463
851109,485,461,463
851110,489,461,460
851111,495,461,463
851112,499,461,464
851113,500,462,461
851114,506,460,462
851115,509,462,463
851116,414,461,461
851117,196,458,462
851118,305,462,463
851119,314,461,464
851120,332,461,463
851121,338,461,461
851122,347,462,462
851123,353,461,463
851124,364,460,463
851125,368,460,462
851126,371,460,461
851127,381,461,462
851128,387,463,459
851129,400,459,463
851130,412,461,462
851131,426,463,462
851132,436,461,461
851133,444,459,463
851134,449,462,463
851135,453,461,459
851136,266,460,462
851137,27,460,463
851138,170,460,462
851139,180,461,461
851140,191,461,462
851141,203,462,461
851142,212,461,461
851143,227,460,462
851144,241,462,461
851145,258,462,462
851146,273,460,461
851147,288,461,463
851148,307,462,461
851149,319,461,459
851150,330,460,461
851151,338,461,461
851152,344,462,461
851153,353,462,461
851154,358,461,462
851155,366,457,460
851156,129,460,463
851157,6,461,461
851158,86,460,462
851159,106,462,463
851160,121,462,462
851161,135,462,460
851162,150,461,462
851163,165,461,460
851164,180,461,461
851165,194,461,460
851166,213,460,462
851167,230,462,459
851168,244,459,462
851169,262,462,461
851170,275,459,462
851171,290,461,461
851172,301,461,462
851173,312,459,462
851174,325,459,461
851175,335,459,460
851176,30,461,462
851177,3,462,463
851178,58,460,461
851179,82,461,461
851180,98,462,459
851181,115,461,461
851182,133,462,461
851183,149,460,458
851184,168,459,462
851185,187,460,462
851186,209,460,464
851187,226,461,460
851188,249,461,460
851189,268,459,462
851190,287,463,462
851191,303,462,459
851192,317,459,461
851193,335,460,463
851194,349,459,461
851195,360,460,462
851196,10,462,462
851197,3,461,462
851198,61,462,463
851199,87,460,462
851200,104,461,462
851201,125,460,461
851202,147,461,462
851203,173,459,462
851204,191,460,462
851205,218,460,461
851206,244,462,463
851207,265,461,461
851208,288,459,462
851209,309,461,463
851210,325,462,461
851211,331,460,463
851212,357,460,461
851213,368,461,459
851214,383,460,462
851215,396,461,461
851216,11,459,461
851217,1,462,462
851218,71,461,463
851219,100,461,461
851220,126,462,462
851221,148,460,462
851222,171,460,461
851223,195,459,462
851224,219,462,463
851225,244,461,463
851226,268,461,460
851227,292,461,464
851228,315,461,460
851229,336,461,463
851230,356,461,461
851231,372,461,462
851232,393,460,461
851233,407,462,461
851234,426,461,463
851235,442,460,462
851236,14,461,461
851237,4,460,462
851238,78,462,463
851239,119,461,461
851240,146,462,464
851241,172,462,461
851242,193,462,462
851243,223,462,462
851244,253,461,463
851245,281,462,460
851246,307,461,462
851247,333,462,463
851248,353,461,462
851249,374,461,463
851250,391,461,463
851251,413,461,462
851252,431,461,462
851253,450,460,462
851254,468,462,460
851255,487,460,463
851256,69,460,463
851257,4,461,462
851258,110,462,461
851259,136,460,460
851260,162,459,463
851261,186,461,462
851262,214,460,462
851263,242,463,462
851264,266,460,463
851265,292,462,460
851266,321,461,464
851267,347,462,462
851268,372,462,463
851269,399,460,460
851270,424,461,462
851271,449,458,462
851272,472,461,461
851273,493,460,461
851274,506,462,463
851275,525,461,462
851276,124,461,462
851277,6,461,463
851278,135,461,459
851279,167,462,462
851280,199,463,462
851281,224,461,462
851282,258,461,462
851283,282,461,462
851284,313,461,463
851285,335,460,462
851286,366,458,462
851287,395,462,463
851288,422,460,461
851289,443,460,463
851290,464,462,462
851291,485,461,462
851292,505,460,461
851293,526,460,460
851294,546,461,461
851295,563,459,462
851296,197,460,462
851297,94,459,462
851298,205,460,462
851299,237,462,463
851300,269,461,462
851301,299,460,463
851302,327,461,460
851303,355,462,462
851304,384,461,460
851305,408,460,462
851306,435,460,463
851307,460,460,459
851308,488,460,463
851309,512,461,463
851310,535,458,461
851311,555,458,461
851312,575,462,459
851313,595,459,463
851314,614,460,463
851315,632,461,462
851316,336,461,461
851317,264,458,463
851318,363,462,460
851319,387,462,462
851320,413,462,462
851321,440,461,459
851322,467,459,461
851323,493,463,463
851324,516,462,463
851325,538,459,462
851326,564,461,461
851327,594,461,462
851328,620,462,462
851329,645,461,462
851330,663,463,461
851331,682,462,462
851332,696,461,460
851333,715,461,463
851334,726,462,459
851335,741,460,462
851336,390,461,462
851337,304,461,462
851338,430,462,462
851339,457,461,463
851340,478,461,461
851341,501,461,463
851342,525,461,460
851343,556,460,462
851344,576,460,462
851345,601,460,461
851346,619,461,464
851347,641,459,463
851348,661,462,460
851349,685,459,462
851350,706,461,461
851351,728,461,463
851352,746,460,463
851353,759,462,461
851354,772,461,460
851355,783,460,462
851356,413,461,462
851357,291,462,463
851358,423,462,464
851359,452,460,463
851360,478,459,464
851361,500,462,461
851362,525,460,462
851363,551,461,463
851364,574,460,461
851365,601,460,462
851366,625,461,463
851367,651,460,462
851368,671,461,460
851369,695,458,462
851370,715,460,463
851371,734,460,460
851372,754,460,461
851373,772,461,462
851374,788,461,462
851375,797,460,463
851376,376,460,461
851377,353,460,462
851378,453,460,462
851379,480,461,462
851380,505,460,463
851381,530,462,461
851382,554,459,462
851383,582,459,462
851384,609,460,463
851385,632,460,458
851386,660,461,463
851387,683,461,462
851388,707,459,462
851389,729,460,461
851390,752,460,463
851391,771,458,462
851392,787,461,461
851393,803,462,459
851394,815,461,462
851395,829,461,459
851396,486,460,462
851397,454,459,463
851398,568,462,462
851399,593,461,463
851400,612,462,462
851401,636,460,462
851402,658,460,461
851403,683,460,462
851404,703,462,462
851405,724,459,462
851406,741,460,462
851407,759,460,463
851408,778,462,462
851409,798,460,462
851410,816,460,461
851411,835,460,463
851412,856,457,462
851413,874,459,462
851414,889,458,463
851415,903,460,463
851416,725,460,463
851417,772,461,460
851418,793,458,463
851419,812,461,462
851420,830,460,462
851421,847,459,463
851422,865,460,462
851423,881,460,463
851424,901,460,463
851425,915,461,462
851426,935,460,462
851427,950,458,461
851428,964,460,462
851429,981,460,461
851430,995,462,459
851431,1009,461,462
851432,1020,462,461
851433,1023,459,462
851434,1023,460,462
851435,1023,461,462
851436,935,460,461
851437,1019,461,462
851438,1023,459,461
851439,1023,460,461
851440,1023,461,457
851441,1023,459,460
851442,1023,462,463
851443,1023,461,463
851444,1023,460,460
851445,1023,460,461
851446,1023,460,463
851447,1023,460,460
851448,1023,478,466
851449,957,462,465
851450,778,464,463
851451,736,460,461
851452,736,460,462
851453,739,460,461
851454,741,462,461
851455,742,460,462
851456,740,460,461
851457,742,459,461
851458,742,459,463
851459,742,459,462
851460,743,460,461
851461,745,461,461
851462,745,459,462
851463,746,459,461
851464,748,460,461
851465,748,460,461
851466,748,460,461
851467,752,462,467
851468,753,473,470
851469,754,477,476
851470,754,481,480
851471,754,482,479
851472,755,481,478
851473,754,483,477
851474,755,480,480
851475,754,481,480
851476,740,459,461
851477,750,460,462
851478,751,461,464
851479,752,464,464
851480,752,464,467
851481,753,470,471
851482,753,476,476
851483,754,478,477
851484,754,479,479
851485,756,481,478
851486,755,480,479
851487,754,481,480
851488,755,481,480
851489,754,481,478
851490,755,480,479
851491,755,481,478
851492,754,481,481
851493,755,481,478
851494,755,482,478
851495,755,484,478
851496,1011,461,462
851497,1023,459,461
851498,1023,460,460
851499,1023,459,462
851500,1023,482,467
851501,1023,476,466
851502,975,467,466
851503,855,462,462
851504,761,461,462
851505,736,462,459
851506,736,462,461
851507,736,459,462
851508,736,461,462
851509,737,461,461
851510,738,461,460
851511,739,460,462
851512,739,462,462
851513,740,460,461
851514,741,460,463
851515,740,460,462
851516,686,461,462
851517,691,460,462
851518,792,461,461
851519,803,461,462
851520,817,461,463
851521,828,461,462
851522,841,461,461
851523,851,461,462
851524,864,461,464
851525,872,462,461
851526,881,461,459
851527,895,461,463
851528,908,461,462
851529,917,460,461
851530,927,459,462
851531,934,460,460
851532,946,461,462
851533,956,459,462
851534,962,461,462
851535,886,461,462
851536,355,460,463
851537,355,460,460
851538,491,459,462
851539,508,459,462
851540,525,461,463
851541,540,459,462
851542,558,461,462
851543,574,461,460
851544,590,462,462
851545,607,460,462
851546,625,460,458
851547,646,459,462
851548,664,461,461
851549,680,458,461
851550,691,461,462
851551,707,461,462
851552,721,460,463
851553,731,461,463
851554,744,459,461
851555,730,460,462
851556,335,461,463
851557,419,462,462
851558,457,462,462
851559,475,461,462
851560,493,461,462
851561,513,462,461
851562,531,460,462
851563,551,462,462
851564,568,462,459
851565,589,462,462
851566,609,459,463
851567,631,462,462
851568,643,461,462
851569,663,461,461
851570,676,458,462
851571,685,462,459
851572,696,459,461
851573,707,462,463
851574,714,464,464
851575,724,462,462
851576,517,460,461
851577,590,461,462
851578,604,462,461
851579,617,461,462
851580,629,461,462
851581,644,461,463
851582,654,462,459
851583,671,458,461
851584,682,462,463
851585,696,461,460
851586,707,460,462
851587,714,463,462
851588,725,461,463
851589,731,460,462
851590,744,461,461
851591,751,458,461
851592,761,461,462
851593,771,461,461
851594,778,459,462
851595,784,460,459
851596,726,460,461
851597,765,461,463
851598,770,462,461
851599,777,461,462
851600,779,459,462
851601,781,461,461
851602,783,459,462
851603,784,461,462
851604,789,462,460
851605,794,459,462
851606,802,462,461
851607,812,461,459
851608,819,460,463
851609,828,459,462
851610,831,460,462
851611,841,460,462
851612,842,459,462
851613,845,461,464
851614,842,461,460
851615,843,461,461
851616,831,461,460
851617,838,459,462
851618,840,460,462
851619,841,461,461
851620,845,458,462
851621,851,460,462
851622,857,460,461
851623,865,461,461
851624,866,460,462
851625,872,460,459
851626,878,461,462
851627,880,460,461
851628,886,462,461
851629,889,460,462
851630,889,461,461
851631,893,460,462
851632,888,460,459
851633,891,457,461
851634,887,460,461
851635,884,461,462
851636,881,460,461
851637,873,459,460
851638,870,460,461
851639,858,461,461
851640,851,459,460
851641,844,461,461
851642,839,460,461
851643,836,461,462
851644,835,462,462
851645,842,461,462
851646,843,460,462
851647,847,460,461
851648,847,459,461
851649,847,460,459
851650,842,461,461
851651,836,461,462
851652,831,460,461
851653,824,462,462
851654,818,462,462
851655,815,459,461
851656,812,461,462
851657,809,461,462
851658,805,459,461
851659,802,457,462
851660,799,462,461
851661,793,460,461
851662,790,460,462
851663,782,461,461
851664,777,461,462
851665,775,461,461
851666,776,459,462
851667,775,461,462
851668,774,461,461
851669,777,461,461
851670,777,461,460
851671,781,460,462
851672,773,460,462
851673,772,460,460
851674,768,458,461
851675,761,459,462
851676,749,461,460
851677,741,460,460
851678,732,460,461
851679,722,461,461
851680,711,460,462
851681,704,460,461
851682,698,460,462
851683,696,461,463
851684,698,461,460
851685,702,459,462
851686,700,462,461
851687,701,462,463
851688,701,460,461
851689,698,460,462
851690,694,459,462
851691,687,462,461
851692,686,461,461
851693,681,459,462
851694,677,462,460
851695,673,460,461
851696,656,460,462
851697,648,460,462
851698,648,462,462
851699,644,460,461
851700,639,461,461
851701,638,460,461
851702,636,459,461
851703,634,459,461
851704,631,461,463
851705,628,460,459
851706,625,461,462
851707,622,460,462
851708,614,460,461
851709,610,458,461
851710,606,461,461
851711,599,461,460
851712,597,460,462
851713,595,460,462
851714,595,461,461
851715,587,460,461
851716,440,462,462
851717,490,460,463
851718,492,461,461
851719,491,460,462
851720,490,460,461
851721,483,461,459
851722,489,459,461
851723,492,461,460
851724,494,459,461
851725,494,460,461
851726,498,460,462
851727,498,459,462
851728,497,461,461
851729,499,461,461
851730,502,458,462
851731,506,460,462
851732,507,461,462
851733,502,461,462
851734,502,461,463
851735,294,460,462
851736,8,459,462
851737,113,461,463
851738,123,458,461
851739,133,459,462
851740,140,461,460
851741,150,460,463
851742,158,462,462
851743,165,462,461
851744,174,463,461
851745,184,460,462
851746,192,462,462
851747,201,461,460
851748,211,462,462
851749,220,460,462
851750,226,462,463
851751,235,461,462
851752,240,462,462
851753,244,461,461
851754,248,461,460
851755,5,462,463
851756,2,461,459
851757,0,461,461
851758,29,459,462
851759,58,462,459
851760,78,460,461
851761,99,461,463
851762,120,461,461
851763,140,461,462
851764,161,460,461
851765,180,460,462
851766,201,460,460
851767,211,461,461
851768,235,459,462
851769,250,461,462
851770,267,461,460
851771,284,458,463
851772,294,459,462
851773,304,461,459
851774,210,459,462
851775,5,462,462
851776,1,461,462
851777,2,460,462
851778,32,460,463
851779,74,460,462
851780,108,460,462
851781,142,460,463
851782,172,462,461
851783,206,461,462
851784,234,461,460
851785,264,459,462
851786,297,463,461
851787,327,461,462
851788,354,458,462
851789,379,460,459
851790,406,460,462
851791,430,460,462
851792,456,461,462
851793,474,462,462
851794,499,460,462
851795,12,461,462
851796,5,461,461
851797,1,462,460
851798,88,461,461
851799,127,459,462
851800,162,462,462
851801,200,460,462
851802,231,461,462
851803,266,461,463
851804,302,461,462
851805,334,460,462
851806,362,459,462
851807,398,461,463
851808,427,462,459
851809,458,462,461
851810,489,460,461
851811,516,461,462
851812,540,461,461
851813,569,462,462
851814,596,460,462
851815,13,459,461
851816,5,460,460
851817,2,461,462
851818,105,460,462
851819,148,464,463
851820,194,462,461
851821,235,459,461
851822,277,461,462
851823,319,461,463
851824,357,458,462
851825,395,461,462
851826,436,460,462
851827,475,461,462
851828,510,461,459
851829,548,461,462
851830,583,460,461
851831,619,461,462
851832,646,462,461
851833,676,460,461
851834,705,462,459
851835,306,461,462
851836,9,461,461
851837,185,461,462
851838,232,460,462
851839,275,461,462
851840,319,460,462
851841,359,460,461
851842,400,461,460
851843,442,461,461
851844,482,458,462
851845,522,460,462
851846,568,461,461
851847,600,461,459
851848,638,461,461
851849,670,461,461
851850,704,461,462
851851,736,460,462
851852,762,460,458
851853,793,459,462
851854,817,460,462
851855,727,462,462
851856,656,462,462
851857,737,460,461
851858,761,462,462
851859,795,461,459
851860,828,461,461
851861,856,461,459
851862,883,462,461
851863,908,460,462
851864,936,462,462
851865,962,461,463
851866,987,461,461
851867,1012,460,461
851868,1023,460,460
851869,1023,457,462
851870,1023,461,462
851871,1023,460,459
851872,1023,462,460
851873,981,466,465
851874,801,462,460
851875,736,459,460
851876,739,461,461
851877,741,458,460
851878,744,459,459
851879,747,460,462
851880,748,460,461
851881,750,461,462
851882,753,476,474
851883,754,480,479
851884,754,482,480
851885,754,483,479
851886,754,483,479
851887,754,482,478
851888,755,484,478
851889,754,481,480
851890,754,481,479
851891,753,482,479
851892,755,484,476
851893,753,482,480
851894,755,480,477
851895,754,483,478
851896,754,482,479
851897,754,482,480
851898,754,482,478
851899,754,481,480
851900,754,480,477
851901,755,484,479
851902,754,481,479
851903,755,482,478
851904,754,479,478
851905,755,482,479
851906,754,482,477
851907,754,480,479
851908,753,481,478
851909,752,481,481
851910,754,481,479
851911,754,480,479
851912,754,481,477
851913,754,482,478
851914,754,482,478
851915,753,480,479
851916,754,480,479
851917,754,482,478
851918,753,481,479
851919,754,481,479
851920,754,482,480
851921,754,481,478
851922,755,483,481
851923,756,483,478
851924,754,481,480
851925,754,482,478
851926,755,481,480
851927,755,482,479
851928,754,480,479
851929,755,481,477
851930,755,483,480
851931,755,482,479
851932,754,482,479
851933,753,482,478
851934,755,481,480
851935,755,481,477
851936,753,482,480
851937,753,481,477
851938,754,480,479
851939,753,479,478
851940,754,481,478
851941,755,480,479
851942,755,481,478
851943,753,482,479
851944,755,481,480
851945,755,480,479
851946,756,481,478
851947,754,480,480
851948,755,481,479
851949,755,482,478
851950,754,479,481
851951,754,482,480
851952,754,481,478
851953,754,481,479
851954,754,482,479
851955,755,481,479
851956,755,480,480
851957,753,481,478
851958,755,482,478
851959,755,481,478
851960,755,481,479
851961,754,480,478
851962,754,479,479
851963,755,481,479
851964,754,479,478
851965,755,481,479
851966,754,482,480
851967,755,480,477
851968,754,479,478
851969,753,482,477
851970,754,479,479
851971,754,479,478
851972,754,480,479
851973,754,477,478
851974,753,473,474
851975,753,472,473
851976,752,470,470
851977,753,471,468
851978,753,468,468
851979,751,468,469
851980,753,469,467
851981,752,467,468
851982,753,465,467
851983,752,467,469
851984,752,468,471
851985,753,470,472
851986,752,468,470
851987,752,470,469
851988,754,470,471
851989,753,470,471
851990,753,472,471
851991,751,470,473
851992,753,470,467
851993,753,468,467
851994,752,464,467
851995,752,462,462
851996,750,462,463
851997,749,461,463
851998,750,461,461
851999,750,460,461
852000,749,460,460
852001,749,459,460
852002,747,460,461
852003,749,461,459
852004,748,460,459
852005,749,460,462
852006,749,460,461
852007,750,461,461
852008,749,461,462
852009,749,459,462
852010,748,460,462
852011,748,460,459
852012,748,458,462
852013,748,459,461
852014,746,461,461
852015,749,461,462
852016,748,462,461
852017,747,459,459
852018,748,461,460
852019,746,458,461
852020,746,458,460
852021,745,460,461
852022,746,460,462
852023,746,460,459
852024,746,460,460
852025,746,460,462
852026,746,459,461
852027,747,461,461
852028,747,459,461
852029,746,464,458
852030,745,461,461
852031,745,458,461
852032,744,460,463
852033,743,461,459
852034,744,459,461
852035,743,460,459
852036,742,458,460
852037,742,458,461
852038,740,462,461
852039,740,460,462
852040,741,461,460
852041,740,461,460
852042,740,460,460
852043,740,461,462
852044,740,460,462
852045,740,461,461
852046,739,456,461
852047,739,461,462
852048,738,462,459
852049,737,463,462
852050,737,461,459
852051,737,459,462
852052,737,461,460
852053,736,462,463
852054,736,461,462
852055,736,461,462
852056,737,461,461
852057,776,461,462
852058,762,460,461
852059,812,462,463
852060,842,462,461
852061,860,462,462
852062,867,462,463
852063,844,462,463
852064,867,463,463
852065,868,462,461
852066,859,461,463
852067,885,460,462
852068,930,461,464
852069,968,464,466
852070,996,470,466
852071,1023,476,463
852072,1023,480,464
852073,1023,480,465
852074,1023,482,465
852075,1023,487,464
852076,1023,482,466
852077,1023,484,467
852078,1023,480,467
852079,1023,476,468
852080,1023,482,468
852081,1023,481,464
852082,1023,482,465
852083,1023,476,465
852084,1023,479,466
852085,1023,480,467
852086,1023,481,464
852087,1023,475,466
852088,1023,479,466
852089,1023,468,465
852090,1023,466,465
852091,1023,464,464
852092,1023,462,463
852093,1023,463,463
852094,1023,462,461
852095,1023,462,462
852096,1023,462,463
852097,1023,461,463
852098,1023,463,463
852099,1023,462,464
852100,1023,461,463
852101,1023,461,461
852102,1023,460,463
852103,1023,460,463
852104,1023,462,462
852105,1023,461,463
852106,1023,462,464
852107,1023,461,463
852108,1023,461,463
852109,1023,461,461
852110,1023,461,463
852111,1023,462,462
852112,1020,461,463
852113,1014,462,458
852114,1013,463,463
852115,1008,462,460
852116,1005,462,459
852117,1002,459,462
852118,998,461,463
852119,994,461,461
852120,986,461,461
852121,983,462,462
852122,971,461,462
852123,970,461,460
852124,969,462,462
852125,965,460,462
852126,967,461,460
852127,966,458,460
852128,962,461,462
852129,966,459,462
852130,962,459,462
852131,957,461,463
852132,950,462,462
852133,943,462,463
852134,936,461,462
852135,931,461,462
852136,928,462,462
852137,924,461,459
852138,924,462,460
852139,925,462,460
852140,925,462,462
852141,925,461,463
852142,925,461,462
852143,924,463,463
852144,919,462,461
852145,919,462,462
852146,917,461,462
852147,915,462,460
852148,916,460,462
852149,916,460,462
852150,912,461,463
852151,911,462,463
852152,906,462,462
852153,902,460,462
852154,901,462,461
852155,897,459,463
852156,894,462,461
852157,890,462,459
852158,885,460,463
852159,881,460,461
852160,878,460,461
852161,875,461,463
852162,870,462,462
852163,863,461,461
852164,864,462,461
852165,863,462,462
852166,859,460,462
852167,858,461,463
852168,854,462,462
852169,854,461,463
852170,858,461,462
852171,858,460,463
852172,851,461,463
852173,849,463,463
852174,847,460,463
852175,840,459,461
852176,834,461,463
852177,827,462,460
852178,823,461,463
852179,816,460,464
852180,814,463,462
852181,811,459,462
852182,813,461,463
852183,812,463,462
852184,808,462,462
852185,809,462,462
852186,811,460,463
852187,810,459,463
852188,809,460,463
852189,807,460,463
852190,804,463,463
852191,802,462,463
852192,797,461,459
852193,793,460,461
852194,784,458,462
852195,776,462,463
852196,768,462,463
852197,759,462,463
852198,752,461,461
852199,749,461,463
852200,748,463,460
852201,751,463,462
852202,751,460,463
852203,746,461,464
852204,749,463,462
852205,751,460,463
852206,753,461,463
852207,755,460,463
852208,753,462,461
852209,752,462,461
852210,746,461,465
852211,747,462,463
852212,745,460,463
852213,739,460,463
852214,731,461,463
852215,731,458,463
852216,726,459,464
852217,723,462,463
852218,721,462,463
852219,721,461,463
852220,718,462,462
852221,720,460,463
852222,718,460,464
852223,719,461,461
852224,719,461,462
852225,719,460,462
852226,721,460,464
852227,717,461,460
852228,713,460,462
852229,716,459,463
852230,714,463,463
852231,708,462,462
852232,705,461,463
852233,695,461,463
852234,695,459,462
852235,689,462,464
852236,687,462,463
852237,680,460,463
852238,677,459,463
852239,675,462,463
852240,672,461,463
852241,672,463,463
852242,675,461,464
852243,671,462,463
852244,668,461,463
852245,664,461,464
852246,659,461,463
852247,656,460,463
852248,658,461,462
852249,657,460,463
852250,656,461,462
852251,657,462,462
852252,657,459,462
852253,651,462,463
852254,648,460,463
852255,645,460,461
852256,642,462,463
852257,637,461,463
852258,635,461,463
852259,634,461,462
852260,633,462,463
852261,630,462,463
852262,628,463,462
852263,626,462,463
852264,623,461,459
852265,626,460,461
852266,626,462,463
852267,622,461,462
852268,619,459,463
852269,617,461,462
852270,611,460,462
852271,610,462,462
852272,608,462,462
852273,601,460,461
852274,597,462,463
852275,589,461,459
852276,586,463,461
852277,578,460,463
852278,575,460,462
852279,569,459,463
852280,566,461,463
852281,563,462,463
852282,558,461,463
852283,559,462,461
852284,557,462,462
852285,557,464,463
852286,557,461,462
852287,556,461,463
852288,553,462,462
852289,549,462,463
852290,545,458,462
852291,542,459,464
852292,535,462,463
852293,530,459,462
852294,526,459,462
852295,521,460,462
852296,511,462,460
852297,506,461,461
852298,500,463,463
852299,494,459,462
852300,485,461,462
852301,484,461,460
852302,480,458,462
852303,477,461,462
852304,472,461,459
852305,472,460,462
852306,469,462,462
852307,465,456,462
852308,460,461,461
852309,458,462,464
852310,452,462,462
852311,447,461,463
852312,440,461,463
852313,431,461,459
852314,425,461,462
852315,418,462,462
852316,414,461,463
852317,404,462,463
852318,397,462,459
852319,392,460,461
852320,387,462,462
852321,380,462,462
852322,376,461,461
852323,370,461,462
852324,368,461,462
852325,364,460,462
852326,362,461,462
852327,360,460,462
852328,356,461,462
852329,353,460,462
852330,347,462,459
852331,344,460,462
852332,340,459,462
852333,334,461,462
852334,328,461,464
852335,321,460,460
852336,316,460,464
852337,311,461,461
852338,306,462,462
852339,301,457,462
852340,300,461,462
852341,295,462,463
852342,290,460,462
852343,290,460,461
852344,286,460,462
852345,282,461,464
852346,281,461,462
852347,277,460,463
852348,275,461,462
852349,272,459,462
852350,269,462,462
852351,265,458,462
852352,262,460,462
852353,261,462,460
852354,259,461,460
852355,256,461,462
852356,250,461,462
852357,247,461,461
852358,247,462,462
852359,244,462,462
852360,244,461,462
852361,240,462,462
852362,238,461,462
852363,242,459,459
852364,242,461,462
852365,239,461,462
852366,239,461,463
852367,240,462,462
852368,238,459,462
852369,236,461,461
852370,234,461,463
852371,232,459,463
852372,226,461,461
852373,222,460,462
852374,216,460,462
852375,211,461,461
852376,202,462,462
852377,199,460,462
852378,196,461,462
852379,193,459,461
852380,190,459,461
852381,191,460,463
852382,191,462,461
852383,193,461,461
852384,194,462,462
852385,193,460,461
852386,195,458,461
852387,197,459,463
852388,195,461,462
852389,192,460,461
852390,191,461,462
852391,189,460,460
852392,187,462,460
852393,184,462,462
852394,180,460,462
852395,174,460,462
852396,173,460,461
852397,168,461,462
852398,166,460,463
852399,165,459,460
852400,162,461,463
852401,160,461,461
852402,159,462,462
852403,158,459,462
852404,156,459,461
852405,157,461,459
852406,159,461,462
852407,159,461,462
852408,161,459,460
852409,161,460,459
852410,164,460,460
852411,159,463,459
852412,162,461,461
852413,161,461,463
852414,160,462,460
852415,157,462,462
852416,158,463,463
852417,155,461,462
852418,152,461,463
852419,152,459,461
852420,152,460,459
852421,155,462,460
852422,156,459,462
852423,158,461,462
852424,160,462,461
852425,159,461,463
852426,163,460,459
852427,164,459,458
852428,161,461,463
852429,166,461,462
852430,166,459,461
852431,163,460,459
852432,164,460,462
852433,160,461,462
852434,159,462,463
852435,155,460,459
852436,156,461,463
852437,151,459,463
852438,152,461,462
852439,147,462,460
852440,148,462,461
852441,150,461,463
852442,147,460,459
852443,149,461,462
852444,148,460,462
852445,151,461,462
852446,152,462,460
852447,155,461,462
852448,152,460,463
852449,152,462,461
852450,154,461,462
852451,155,457,462
852452,152,461,463
852453,151,460,461
852454,147,461,461
852455,143,462,462
852456,141,459,461
852457,139,460,461
852458,139,461,461
852459,137,459,462
852460,135,459,463
852461,135,462,462
852462,133,461,462
852463,133,462,459
852464,136,461,462
852465,137,460,459
852466,142,460,462
852467,143,460,462
852468,142,462,463
852469,145,461,462
852470,148,460,462
852471,148,459,460
852472,148,460,462
852473,148,460,460
852474,145,462,461
852475,143,459,461
852476,140,462,463
852477,135,460,464
852478,134,461,461
852479,132,460,463
852480,134,462,462
852481,136,460,461
852482,139,462,460
852483,138,462,460
852484,140,461,461
852485,142,461,461
852486,147,461,461
852487,146,461,463
852488,148,463,463
852489,149,461,463
852490,150,462,463
852491,150,461,462
852492,147,461,463
852493,143,461,461
852494,143,458,462
852495,142,460,464
852496,138,461,462
852497,137,458,462
852498,135,462,463
852499,137,460,462
852500,138,462,462
852501,143,459,461
852502,145,461,463
852503,146,459,462
852504,148,461,461
852505,152,461,462
852506,155,462,464
852507,157,462,463
852508,161,463,462
852509,164,462,461
852510,164,462,461
852511,166,461,462
852512,164,461,462
852513,162,461,464
852514,160,461,462
852515,157,463,459
852516,156,460,461
852517,155,461,463
852518,154,461,461
852519,155,461,462
852520,155,460,461
852521,159,462,463
852522,162,460,462
852523,163,461,463
852524,168,461,463
852525,172,462,461
852526,175,462,460
852527,179,461,462
852528,182,462,462
852529,185,460,463
852530,186,461,463
852531,186,461,461
852532,185,461,463
852533,185,463,460
852534,185,462,463
852535,187,462,463
852536,183,462,463
852537,185,461,461
852538,185,461,463
852539,187,459,461
852540,190,462,462
852541,194,463,461
852542,198,462,462
852543,200,462,463
852544,204,463,460
852545,210,461,462
852546,213,459,462
852547,218,462,462
852548,222,461,461
852549,224,460,461
852550,227,459,463
852551,228,462,463
852552,228,461,459
852553,231,462,462
852554,229,461,460
852555,231,463,462
852556,233,463,462
852557,235,463,461
852558,237,457,462
852559,240,462,464
852560,241,462,462
852561,244,461,462
852562,247,462,463
852563,249,461,462
852564,254,462,462
852565,257,462,462
852566,260,460,462
852567,266,461,462
852568,268,462,463
852569,272,461,463
852570,274,463,463
852571,278,463,460
852572,277,462,463
852573,278,462,462
852574,277,462,462
852575,278,460,462
852576,277,463,459
852577,279,463,463
852578,280,458,463
852579,280,463,462
852580,282,462,463
852581,287,461,461
852582,291,461,464
852583,297,462,463
852584,300,462,462
852585,304,461,462
852586,311,463,462
852587,313,463,461
852588,317,462,462
852589,319,462,462
852590,323,461,462
852591,323,461,462
852592,324,460,461
852593,324,461,462
852594,326,462,461
852595,327,460,461
852596,324,462,459
852597,325,463,462
852598,327,460,462
852599,330,462,462
852600,332,461,464
852601,336,460,463
852602,339,462,461
852603,345,461,462
852604,350,462,463
852605,354,460,463
852606,359,462,462
852607,364,462,462
852608,366,463,461
852609,372,460,461
852610,374,461,463
852611,375,463,461
852612,374,462,459
852613,377,464,463
852614,375,463,461
852615,376,459,461
852616,375,458,461
852617,375,459,461
852618,377,462,462
852619,377,460,462
852620,382,462,461
852621,383,462,462
852622,389,462,462
852623,390,461,463
852624,396,462,462
852625,402,462,463
852626,406,461,462
852627,410,460,462
852628,414,462,462
852629,413,461,462
852630,416,461,460
852631,420,461,462
852632,420,459,462
852633,420,461,462
852634,419,461,463
852635,417,463,463
852636,417,459,462
852637,418,462,464
852638,418,461,462
852639,420,462,462
852640,421,461,463
852641,421,461,463
852642,426,462,462
852643,431,460,463
852644,435,461,461
852645,438,462,461
852646,441,462,462
852647,446,463,461
852648,449,463,462
852649,453,462,460
852650,453,463,462
852651,453,459,463
852652,453,460,461
852653,451,461,462
852654,453,460,462
852655,447,461,463
852656,446,461,462
852657,448,463,462
852658,447,461,461
852659,448,461,463
852660,446,461,464
852661,450,460,462
852664,462,461,459
852664,464,460,462
852665,467,462,461
852666,470,462,462
852667,474,461,461
852668,471,461,462
852669,476,461,462
852670,475,461,460
852671,473,460,463
852672,473,460,462
852672,476,462,463
852673,467,462,464
852674,467,461,461
852675,467,460,463
852676,465,459,463
852677,465,460,460
852678,463,462,462
852679,465,462,463
852680,465,460,461
852681,467,460,463
852682,470,462,461
852683,471,458,462
852684,475,460,462
852685,478,461,460
852686,482,462,461
852687,484,460,460
852688,485,461,459
852689,487,462,461
852690,487,461,462
852691,486,461,461
852692,485,462,462
852693,483,460,463
852694,481,461,464
852695,478,462,461
852696,476,462,463
852697,474,462,462
852698,473,462,463
852699,473,461,462
852700,472,461,462
852701,476,462,463
852702,478,461,463
852703,478,461,460
852704,482,460,462
852705,485,462,462
852706,488,459,461
852707,491,461,459
852708,493,461,462
852709,496,460,461
852710,497,460,461
852711,497,462,459
852712,495,461,463
852713,490,461,462
852714,489,459,463
852715,486,461,463
852716,483,461,462
852717,481,461,463
852718,479,462,463
852719,476,460,462
852720,477,462,463
852721,476,458,462
852722,477,460,460
852723,480,460,463
852724,481,461,459
852725,486,460,460
852726,494,461,463
852727,499,462,462
852728,503,460,462
852729,507,458,461
852730,510,461,463
852731,510,461,463
852732,513,462,462
852733,510,462,461
852734,504,461,462
852735,506,462,461
852736,502,461,462
852737,500,461,461
852738,494,461,460
852739,492,461,463
852740,490,461,460
852741,489,461,460
852742,487,461,459
852743,493,460,461
852744,496,459,461
852745,498,461,463
852746,500,460,463
852747,505,460,461
852748,504,461,463
852749,510,462,461
852750,513,461,462
852751,516,461,461
852752,521,462,463
852753,521,461,463
852754,524,461,460
852755,526,461,461
852756,524,461,460
852757,525,462,461
852758,527,463,461
852759,530,455,462
852760,527,461,462
852761,527,462,462
852762,527,460,462
852763,526,460,462
852764,524,462,462
852765,527,460,462
852766,527,461,462
852767,536,462,461
852768,537,461,462
852769,536,457,462
852770,534,462,461
852771,528,461,464
852772,524,462,459
852773,520,460,462
852774,517,460,463
852775,508,462,460
852776,506,461,460
852777,508,460,463
852778,508,460,462
852779,505,460,463
852780,508,461,461
852781,513,460,463
852782,515,460,462
852783,520,460,462
852784,518,462,461
852785,516,461,463
852786,512,462,462
852787,505,461,463
852788,499,460,463
852789,491,461,462
852790,486,461,462
852791,479,460,461
852792,479,461,463
852793,472,460,463
852794,417,463,460
852795,432,461,463
852796,438,461,461
852797,438,462,463
852798,439,460,461
852799,442,459,462
852800,447,461,461
852801,444,462,462
852802,448,458,461
852803,444,461,459
852804,444,461,460
852805,443,460,461
852806,441,462,463
852807,444,462,462
852808,450,459,463
852809,453,460,463
852810,456,462,460
852811,455,461,461
852812,456,463,462
852813,456,461,461
852814,135,460,461
852815,172,462,461
852816,211,459,462
852817,219,460,462
852818,227,460,462
852819,235,466,461
852820,242,463,462
852821,247,461,462
852822,257,461,462
852823,261,461,463
852824,266,462,462
852825,271,461,462
852826,275,460,461
852827,277,462,462
852828,283,460,463
852829,290,460,463
852830,297,462,459
852831,308,461,462
852832,316,458,462
852833,294,460,461
852834,3,462,462
852835,2,461,462
852836,55,459,462
852837,71,460,461
852838,88,462,463
852839,100,460,460
852840,115,462,462
852841,126,461,462
852842,140,457,462
852843,152,461,463
852844,168,460,463
852845,182,460,462
852846,196,462,461
852847,212,458,462
852848,225,462,463
852849,236,461,462
852850,249,463,461
852851,264,460,462
852852,279,462,461
852853,80,460,464
852854,0,461,463
852855,2,462,463
852856,35,458,462
852857,65,462,462
852858,91,461,462
852859,113,460,463
852860,135,462,460
852861,158,462,463
852862,179,462,462
852863,203,460,462
852864,227,461,462
852865,251,459,463
852866,270,462,459
852867,292,461,461
852868,310,460,461
852869,329,460,463
852870,346,463,463
852871,358,459,463
852872,369,461,460
852873,9,461,464
852874,5,462,462
852875,3,462,463
852876,2,461,462
852877,83,462,463
852878,125,462,462
852879,163,460,463
852880,195,460,462
852881,234,461,463
852882,266,461,463
852883,295,459,462
852884,326,459,462
852885,356,463,463
852886,384,463,459
852887,413,461,462
852888,444,461,461
852889,477,460,462
852890,509,460,461
852891,540,461,462
852892,537,461,461
852893,78,460,463
852894,5,461,462
852895,2,462,463
852896,1,462,462
852897,97,462,463
852898,144,462,460
852899,191,463,459
852900,233,460,464
852901,276,458,461
852902,319,462,462
852903,358,461,461
852904,400,461,461
852905,438,461,462
852906,472,460,464
852907,513,462,463
852908,547,461,462
852909,586,461,463
852910,626,460,463
852911,666,461,463
852912,636,460,461
852913,159,461,463
852914,8,460,460
852915,4,462,462
852916,1,461,462
852917,124,461,461
852918,175,461,462
852919,226,459,463
852920,274,463,461
852921,321,460,461
852922,370,462,462
852923,422,461,460
852924,478,459,461
852925,531,461,463
852926,581,461,464
852927,631,461,462
852928,679,461,463
852929,716,460,463
852930,754,461,462
852931,786,461,463
852932,749,461,460
852933,284,461,462
852934,8,461,460
852935,4,459,463
852936,2,460,464
852937,148,461,462
852938,211,460,464
852939,274,461,463
852940,336,461,463
852941,399,461,460
852942,463,461,462
852943,524,461,463
852944,582,459,462
852945,643,462,461
1741019437302,NEW REP,,
852946,694,459,461
852947,740,461,463
852948,785,460,461
852949,825,461,461
852950,864,460,462
852951,901,460,462
852952,888,462,461
852953,376,461,461
852954,11,460,463
852955,6,460,463
852956,52,462,461
852957,180,463,461
852958,248,460,462
852959,319,463,463
852960,384,460,462
852961,453,462,462
852962,515,462,464
852963,579,461,463
852964,641,461,462
852965,692,460,461
852966,744,462,463
852967,795,460,461
852968,839,461,462
852969,881,461,461
852970,919,458,462
852971,960,461,462
852972,950,458,461
852973,424,460,463
852974,13,461,463
852975,7,461,461
852976,71,460,462
852977,206,458,463
852978,277,461,463
852979,343,461,461
852980,412,461,464
852981,478,459,461
852982,544,461,462
852983,606,461,463
852984,666,462,463
852985,723,462,463
852986,778,461,462
852987,835,460,460
852988,884,461,462
852989,936,461,462
852990,979,460,460
852991,1023,460,462
852992,1017,459,462
852993,521,458,460
852994,15,462,462
852995,6,459,464
852996,95,459,462
852997,225,458,463
852998,299,462,463
852999,370,462,462
853000,437,459,462
853001,508,462,460
853002,572,459,461
853003,638,462,462
853004,702,461,463
853005,759,461,462
853006,814,460,462
853007,868,459,461
853008,924,460,463
853009,974,460,462
853010,1023,462,461
853011,1023,459,461
853012,1004,462,463
853013,509,462,459
853014,16,461,463
853015,7,461,462
853016,100,462,463
853017,231,462,464
853018,310,462,462
853019,389,460,460
853020,463,460,463
853021,536,462,461
853022,606,461,462
853023,672,462,461
853024,737,461,461
853025,795,461,460
853026,852,460,462
853027,903,462,462
853028,960,458,462
853029,1009,462,461
853030,1023,461,463
853031,1023,460,460
853032,1023,487,464
853033,623,462,462
853034,74,462,463
853035,9,461,464
853036,231,462,464
853037,321,463,463
853038,397,461,461
853039,469,463,462
853040,546,461,463
853041,617,462,462
853042,687,463,463
853043,751,461,463
853044,812,462,462
853045,876,460,461
853046,937,459,462
853047,992,461,460
853048,1023,462,462
853049,1023,468,465
853050,762,461,462
853051,742,461,461
853052,750,460,460
853053,939,464,461
853054,454,460,459
853055,547,461,463
853056,710,460,460
853057,775,457,461
853058,838,461,459
853059,897,461,463
853060,962,461,461
853061,1018,460,461
853062,1023,460,460
853063,1023,479,466
853064,738,461,462
853065,747,461,461
853066,754,480,479
853067,753,482,478
853068,755,481,480
853069,754,483,479
853070,754,482,479
853071,755,482,478
853072,755,483,479
853073,1023,459,462
853074,756,462,460
853075,849,461,459
853076,972,460,461
853077,1023,461,459
853078,1023,460,462
853079,1023,481,464
853080,738,462,462
853081,747,460,461
853082,753,477,476
853083,755,481,478
853084,754,480,480
853085,753,480,479
853086,753,482,479
853087,755,482,478
853088,755,483,479
853089,754,483,479
853090,754,482,478
853091,754,484,479
853092,754,482,480
853093,1023,484,467
853094,733,460,463
853095,901,459,464
853096,984,461,463
853097,1023,462,463
853098,1023,461,462
853099,1023,485,468
853100,736,462,461
853101,743,460,461
853102,749,461,461
853103,753,480,479
853104,754,481,478
853105,754,482,477
853106,755,483,478
853107,753,481,478
853108,755,483,478
853109,754,482,478
853110,754,482,481
853111,755,482,479
853112,754,481,479
853113,1023,462,461
853114,713,461,463
853115,898,460,462
853116,963,461,460
853117,1008,460,462
853118,1023,461,457
853119,1023,460,461
853120,991,468,466
853121,737,461,460
853122,744,460,463
853123,748,457,462
853124,754,481,478
853125,754,481,479
853126,755,482,479
853127,755,481,479
853128,755,481,478
853129,753,482,480
853130,755,481,479
853131,754,482,479
853132,754,481,479
853133,1023,460,463
853134,756,461,463
853135,935,460,461
853136,975,460,461
853137,1013,457,461
853138,1023,458,461
853139,1023,459,460
853140,1023,462,463
853141,757,459,462
853142,740,461,460
853143,746,460,458
853144,751,462,461
853145,753,480,478
853146,755,482,478
853147,754,482,479
853148,754,481,479
853149,754,481,479
853150,755,481,480
853151,753,480,480
853152,755,481,477
853153,736,461,462
853154,882,462,463
853155,1023,462,463
853156,1023,461,462
853157,1023,484,466
853158,800,459,462
853159,737,461,463
853160,744,461,460
853161,747,461,462
853162,751,467,464
853163,755,483,479
853164,756,481,479
853165,755,481,477
853166,755,482,480
853167,754,481,480
853168,755,481,479
853169,753,482,478
853170,754,479,479
853171,755,483,477
853172,755,480,479
853173,751,461,461
853174,1023,460,462
853175,745,460,461
853176,747,461,461
853177,750,460,458
853178,753,475,475
853179,754,481,479
853180,754,481,478
853181,756,482,479
853182,754,481,480
853183,754,482,480
853184,754,482,481
853185,755,481,481
853186,754,481,479
853187,754,482,479
853188,754,480,478
853189,755,481,479
853190,753,481,480
853191,754,481,478
853192,753,481,479
853193,754,482,479
853194,752,474,474
853195,754,480,478
853196,755,480,479
853197,754,481,477
853198,754,480,479
853199,754,481,479
853200,754,481,480
853201,755,482,479
853202,754,481,477
853203,753,482,480
853204,754,480,478
853205,755,480,479
853206,753,481,479
853207,754,482,477
853208,754,483,480
853209,754,482,479
853210,756,481,479
853211,754,481,477
853212,754,482,479
853213,753,480,478
853214,755,481,480
853215,754,481,478
853216,753,481,479
853217,756,482,479
853218,754,481,478
853219,753,480,478
853220,754,481,478
853221,755,482,479
853222,754,479,479
853223,755,481,479
853224,754,481,478
853225,754,482,481
853226,753,480,479
853227,755,481,480
853228,754,482,477
853229,754,481,480
853230,754,479,477
853231,754,481,478
853232,754,482,479
853233,754,480,479
853234,754,482,480
853235,754,482,480
853236,754,482,478
853237,754,481,479
853238,754,481,477
853239,755,481,478
853240,754,479,480
853241,754,481,479
853242,753,480,479
853243,754,481,477
853244,755,481,478
853245,755,480,478
853246,754,481,479
853247,756,481,479
853248,754,481,479
853249,754,480,479
853250,753,479,478
853251,753,481,479
853252,754,482,479
853253,754,479,480
853254,754,481,479
853255,754,480,480
853256,754,482,479
853257,754,481,479
853258,754,481,479
853259,754,481,478
853260,755,482,478
853261,754,480,478
853262,754,482,479
853263,754,481,478
853264,754,481,480
853265,754,481,479
853266,754,480,478
853267,753,480,478
853268,753,481,479
853269,755,481,477
853270,755,485,479
853271,754,482,479
853272,754,481,479
853273,754,481,479
853274,752,480,480
853275,754,478,480
853276,753,480,480
853277,753,481,477
853278,754,479,478
853279,754,480,480
853280,754,481,479
853281,755,482,478
853282,754,481,479
853283,754,480,478
853284,754,482,479
853285,754,481,478
853286,754,481,480
853287,754,481,477
853288,754,479,478
853289,753,480,480
853290,753,481,478
853291,754,480,479
853292,754,481,478
853293,754,481,480
853294,755,481,480
853295,754,479,477
853296,753,480,479
853297,754,480,479
853298,755,479,479
853299,755,480,480
853300,755,477,479
853301,754,480,480
853302,755,478,480
853303,754,482,479
853304,754,480,479
853305,756,482,479
853306,754,482,478
853307,755,479,478
853308,754,479,478
853309,753,476,474
853310,753,471,474
853311,752,471,472
853312,752,468,469
853313,751,467,466
853314,752,464,461
853315,752,461,461
853316,751,462,461
853317,751,460,461
853318,751,456,461
853319,750,460,461
853320,750,459,458
853321,749,459,460
853322,750,460,461
853323,751,461,463
853324,751,462,464
853325,752,468,467
853326,752,466,468
853327,752,466,469
853328,752,467,465
853329,751,462,464
853330,750,459,462
853331,749,460,461
853332,748,461,461
853333,747,457,460
853334,745,461,463
853335,742,460,463
853336,741,460,458
853337,741,460,461
853338,740,461,460
853339,741,460,460
853340,741,460,462
853341,742,461,458
853342,743,459,460
853343,744,461,462
853344,744,458,462
853345,744,460,459
853346,745,460,462
853347,744,459,460
853348,743,461,460
853349,742,460,462
853350,742,460,461
853351,742,460,460
853352,740,460,461
853353,795,458,463
853354,762,462,462
853355,811,461,463
853356,826,462,462
853357,871,459,463
853358,917,463,464
853359,925,462,462
853360,943,461,463
853361,944,464,464
853362,945,465,463
853363,945,464,464
853364,985,464,465
853365,1012,472,466
853366,1023,474,463
853367,1023,477,467
853368,1013,470,466
853369,1023,476,465
853370,1023,475,463
853371,1023,480,466
853372,1023,486,465
853373,1023,463,462
853374,1023,461,464
853375,1023,461,463
853376,1023,461,464
853377,1023,458,463
853378,1023,461,463
853379,1023,462,462
853380,1023,461,464
853381,1023,461,461
853382,1023,461,461
853383,1023,463,461
853384,1023,461,460
853385,1023,461,462
853386,1023,461,462
853387,1023,462,462
853388,1023,461,459
853389,1023,460,461
853390,1023,463,462
853391,1023,461,462
853392,1023,459,462
853393,919,460,463
853394,947,462,461
853395,947,462,458
853396,944,461,463
853397,945,463,463
853398,943,462,463
853399,939,462,460
853400,937,462,462
853401,937,458,461
853402,937,461,462
853403,938,461,463
853404,943,460,462
853405,945,462,463
853406,951,460,463
853407,953,462,462
853408,955,462,462
853409,952,461,459
853410,949,463,462
853411,945,460,461
853412,938,460,462
853413,769,462,461
853414,808,462,460
853415,810,460,463
853416,807,460,462
853417,807,460,462
853418,810,460,462
853419,814,461,462
853420,819,458,462
853421,824,460,460
853422,828,460,462
853423,835,463,462
853424,835,459,463
853425,838,461,463
853426,840,461,462
853427,839,463,462
853428,837,462,462
853429,836,459,462
853430,832,460,463
853431,827,461,462
853432,826,461,463
853433,582,461,463
853434,652,463,462
853435,658,461,463
853436,663,460,463
853437,662,460,462
853438,656,460,461
853439,652,461,463
853440,651,461,464
853441,652,461,462
853442,653,461,461
853443,660,461,463
853444,667,462,463
853445,675,461,462
853446,684,460,462
853447,689,462,463
853448,696,461,463
853449,699,461,462
853450,700,461,462
853451,699,460,463
853452,690,461,464
853453,399,461,463
853454,399,462,460
853455,457,462,462
853456,457,461,461
853457,455,461,463
853458,459,461,459
853459,464,462,463
853460,466,459,463
853461,470,461,462
853462,474,462,460
853463,481,461,462
853464,488,461,464
853465,493,460,463
853466,497,461,462
853467,503,461,461
853468,511,461,463
853469,512,461,463
853470,519,461,463
853471,520,461,463
853472,524,462,463
853473,151,462,461
853474,190,461,463
853475,256,461,460
853476,270,457,461
853477,278,460,463
853478,288,461,462
853479,299,462,461
853480,309,461,463
853481,311,462,461
853482,318,464,461
853483,324,461,462
853484,332,461,462
853485,339,462,459
853486,345,461,460
853487,354,460,463
853488,362,462,462
853489,368,461,463
853490,373,462,462
853491,379,460,462
853492,386,459,462
853493,26,461,463
853494,58,462,463
853495,131,462,461
853496,141,461,463
853497,153,461,460
853498,166,461,461
853499,180,461,462
853500,196,461,463
853501,214,460,461
853502,228,461,462
853503,240,460,461
853504,246,462,461
853505,254,462,463
853506,256,461,462
853507,263,461,459
853508,270,462,462
853509,278,462,460
853510,286,462,460
853511,295,462,461
853512,302,460,462
853513,6,459,462
853514,10,459,462
853515,86,458,462
853516,97,461,463
853517,111,460,462
853518,124,461,463
853519,137,459,460
853520,153,462,460
853521,167,462,461
853522,177,461,461
853523,196,460,462
853524,208,459,461
853525,220,462,462
853526,232,461,462
853527,241,460,461
853528,251,461,460
853529,264,460,463
853530,273,460,460
853531,280,460,460
853532,284,460,461
853533,5,460,462
853534,2,459,461
853535,63,459,462
853536,81,459,461
853537,95,462,461
853538,107,462,457
853539,118,458,461
853540,131,461,460
853541,145,461,461
853542,159,461,463
853543,171,461,460
853544,183,460,457
853545,198,461,461
853546,211,461,462
853547,223,461,461
853548,236,461,461
853549,249,461,461
853550,260,461,461
853551,270,462,460
853552,266,461,460
853553,5,461,462
853554,2,460,459
853555,59,461,463
853556,81,459,463
853557,103,462,462
853558,123,461,462
853559,145,460,460
853560,163,461,463
853561,181,461,462
853562,201,462,463
853563,223,461,463
853564,242,458,462
853565,262,461,462
853566,281,460,462
853567,299,461,459
853568,317,460,462
853569,333,458,460
853570,348,460,461
853571,359,459,461
853572,305,460,463
853573,4,461,461
853574,2,460,461
853575,73,462,461
853576,97,462,459
853577,118,462,461
853578,140,459,463
853579,163,461,462
853580,188,461,462
853581,211,460,461
853582,232,460,462
853583,254,459,462
853584,277,463,461
853585,297,458,461
853586,316,459,461
853587,334,461,460
853588,354,460,462
853589,369,461,463
853590,384,459,461
853591,398,461,461
853592,316,460,461
853593,6,460,462
853594,3,460,463
853595,80,462,462
853596,108,460,463
853597,133,458,462
853598,159,457,461
853599,185,462,462
853600,210,459,463
853601,236,460,463
853602,259,460,462
853603,284,461,461
853604,310,463,462
853605,332,461,462
853606,354,461,462
853607,378,459,462
853608,399,460,461
853609,418,461,462
853610,434,460,460
853611,451,462,461
853612,325,460,461
853613,6,462,462
853614,2,460,461
853615,88,461,463
853616,119,460,461
853617,149,461,463
853618,179,462,462
853619,209,461,460
853620,239,462,463
853621,268,462,463
853622,298,461,462
853623,327,461,461
853624,356,461,461
853625,379,461,462
853626,409,460,462
853627,432,460,464
853628,460,462,462
853629,482,459,462
853630,504,457,462
853631,524,461,463
853632,377,459,463
853633,10,459,462
853634,3,461,454
853635,113,461,463
853636,148,458,461
853637,180,461,460
853638,215,461,461
853639,248,463,461
853640,282,460,462
853641,313,459,461
853642,346,462,463
853643,378,461,462
853644,408,461,462
853645,441,462,462
853646,470,460,462
853647,498,462,463
853648,528,461,463
853649,554,460,463
853650,579,461,463
853651,600,460,461
853652,459,460,462
853653,10,460,463
853654,22,458,464
853655,155,462,461
853656,191,462,463
853657,228,461,461
853658,262,460,462
853659,297,461,462
853660,328,461,463
853661,362,459,462
853662,393,461,463
853663,427,462,461
853664,458,462,463
853665,491,461,464
853666,524,460,462
853667,553,461,463
853668,578,462,459
853669,604,460,462
853670,627,461,463
853671,650,461,462
853672,541,455,462
853673,88,460,462
853674,166,458,461
853675,242,461,462
853676,275,459,464
853677,307,463,462
853678,341,462,463
853679,373,461,464
853680,407,460,463
853681,439,458,464
853682,474,462,463
853683,508,460,462
853684,536,460,463
853685,573,461,461
853686,602,460,465
853687,629,458,464
853688,656,461,463
853689,680,461,463
853690,700,461,461
853691,721,461,463
853692,690,461,461
853693,289,460,464
853694,418,461,463
853695,454,459,462
853696,483,461,460
853697,515,462,462
853698,546,462,463
853699,574,461,460
853700,602,461,463
853701,631,460,461
853702,656,460,462
853703,682,460,455
853704,709,462,460
853705,732,462,466
853706,759,460,463
853707,778,461,461
853708,801,461,463
853709,817,462,462
853710,836,459,461
853711,850,459,461
853712,856,461,462
853713,526,459,463
853714,639,461,461
853715,664,461,463
853716,684,461,462
853717,708,463,462
853718,731,461,461
853719,750,460,459
853720,774,459,463
853721,796,458,462
853722,818,460,460
853723,840,461,462
853724,862,462,462
853725,880,461,462
853726,896,460,461
853727,912,461,460
853728,924,462,460
853729,939,460,462
853730,949,463,463
853731,963,461,461
853732,847,461,462
853733,482,461,463
853734,636,461,463
853735,659,457,463
853736,681,461,462
853737,702,458,463
853738,722,460,460
853739,745,460,463
853740,766,462,462
853741,794,461,463
853742,815,459,462
853743,839,460,462
853744,861,461,461
853745,884,460,462
853746,902,461,463
853747,919,462,462
853748,939,461,462
853749,954,461,462
853750,966,461,460
853751,980,459,462
853752,898,457,461
853753,621,463,462
853754,745,461,462
853755,770,460,460
853756,789,462,462
853757,806,461,461
853758,826,460,462
853759,842,461,459
853760,860,461,459
853761,880,461,462
853762,901,461,462
853763,921,459,462
853764,942,461,462
853765,959,461,463
853766,983,460,463
853767,998,461,462
853768,1015,460,462
853769,1023,460,462
853770,1023,460,461
853771,1023,458,461
853772,1023,460,460
853773,859,461,460
853774,962,460,459
853775,978,460,463
853776,994,460,462
853777,1008,459,464
853778,1023,460,461
853779,1023,462,460
853780,1023,461,458
853781,1023,458,461
853782,1023,461,462
853783,1023,459,461
853784,1023,459,461
853785,1023,461,464
853786,1023,476,463
853787,895,461,462
853788,787,461,462
853789,747,462,461
853790,736,462,462
853791,736,461,462
853792,738,460,462
853793,740,461,462
853794,740,460,460
853795,742,460,462
853796,743,459,462
853797,744,458,461
853798,744,461,458
853799,746,461,460
853800,748,460,461
853801,750,460,462
853802,748,459,462
853803,750,460,460
853804,751,464,462
853805,751,464,468
853806,753,472,470
853807,753,473,472
853808,754,479,476
853809,753,481,476
853810,754,481,479
853811,754,481,478
853812,755,482,479
853813,754,482,478
853814,754,481,478
853815,754,481,481
853816,754,481,479
853817,754,483,479
853818,755,482,477
853819,754,479,479
853820,753,480,480
853821,754,481,481
853822,755,483,477
853823,755,480,478
853824,753,481,477
853825,754,481,476
853826,753,481,478
853827,755,481,478
853828,756,481,478
853829,755,481,478
853830,755,483,480
853831,754,480,478
853832,753,483,478
853833,756,482,478
853834,754,482,479
853835,753,478,480
853836,753,482,479
853837,753,480,479
853838,754,482,480
853839,753,481,478
853840,754,482,479
853841,754,482,477
853842,754,480,478
853843,755,482,480
853844,755,481,478
853845,754,481,478
853846,754,482,480
853847,755,480,479
853848,754,476,477
853849,753,474,474
853850,752,469,470
853851,752,467,468
853852,753,471,471
853853,753,473,474
853854,754,477,476
853855,754,476,478
853856,753,479,476
853857,753,476,476
853858,754,473,472
853859,752,474,476
853860,753,474,474
853861,755,472,472
853862,753,471,472
853863,754,474,472
853864,753,474,476
853865,753,478,475
853866,754,478,479
853867,755,479,478
853868,754,481,477
853869,754,481,479
853870,753,482,477
853871,754,481,480
853872,752,475,473
853873,753,467,468
853874,751,458,463
853875,750,460,463
853876,748,460,461
853877,747,460,461
853878,747,460,461
853879,746,460,458
853880,748,458,461
853881,748,457,459
853882,748,459,461
853883,749,458,461
853884,749,461,461
853885,752,463,463
853886,750,459,464
853887,751,461,463
853888,751,462,464
853889,750,458,463
853890,750,460,461
853891,748,461,461
853892,748,459,462
853893,746,459,460
853894,746,459,462
853895,743,459,460
853896,743,461,460
853897,744,459,462
853898,744,461,462
853899,744,458,461
853900,743,461,461
853901,742,460,462
853902,742,459,462
853903,742,460,462
853904,741,457,461
853905,743,462,459
853906,741,460,462
853907,739,459,462
853908,739,461,462
853909,738,460,462
853910,736,460,462
853911,736,460,461
853912,738,458,461
853913,763,460,461
853914,804,458,462
853915,879,461,462
853916,943,462,463
853917,1013,472,467
853918,1023,474,465
853919,1023,476,467
853920,1023,479,467
853921,1023,486,465
853922,1023,482,469
853923,1023,487,465
853924,1023,487,465
853925,1023,485,467
853926,1023,487,466
853927,1023,487,467
853928,1023,483,467
853929,1023,484,467
853930,1023,479,466
853931,1023,472,466
853932,1023,463,464
853933,1023,462,464
853934,1023,463,463
853935,1023,462,463
853936,1023,461,465
853937,1023,462,464
853938,1023,462,462
853939,1023,460,462
853940,1023,462,463
853941,1023,462,463
853942,1023,462,463
853943,1023,462,462
853944,1023,461,462
853945,1023,461,461
853946,1021,461,462
853947,1018,460,466
853948,1015,461,462
853949,1006,464,460
853950,998,462,463
853951,996,462,463
853952,988,462,464
853953,982,461,464
853954,984,461,463
853955,978,462,462
853956,975,462,461
853957,972,461,463
853958,969,461,463
853959,965,462,460
853960,957,461,462
853961,953,463,462
853962,955,462,462
853963,956,462,462
853964,958,463,462
853965,960,462,461
853966,966,462,463
853967,967,462,463
853968,966,460,462
853969,962,461,464
853970,958,461,461
853971,949,457,462
853972,944,462,461
853973,932,462,461
853974,915,462,460
853975,907,461,461
853976,900,460,463
853977,889,462,460
853978,882,462,462
853979,873,461,463
853980,867,460,462
853981,865,461,459
853982,867,460,463
853983,873,461,464
853984,881,462,463
853985,890,460,464
853986,894,461,463
853987,900,462,459
853988,896,462,459
853989,896,462,462
853990,900,462,463
853991,900,462,462
853992,845,461,461
853993,821,459,462
853994,828,462,461
853995,825,462,461
853996,826,462,462
853997,826,462,463
853998,828,460,464
853999,832,460,461
854000,833,462,462
854001,840,463,462
854002,845,462,463
854003,846,462,462
854004,851,461,462
854005,854,461,461
854006,856,462,462
854007,855,462,463
854008,856,460,463
854009,849,459,463
854010,840,459,461
854011,830,459,463
854012,660,461,463
854013,633,461,462
854014,671,462,464
854015,673,461,464
854016,675,462,463
854017,678,461,464
854018,682,462,463
854019,689,461,463
854020,696,462,461
854021,703,462,464
854022,716,460,462
854023,726,459,463
854024,732,459,462
854025,737,461,462
854026,740,460,462
854027,741,461,460
854028,744,461,463
854029,744,462,463
854030,740,461,463
854031,735,462,460
854032,577,462,463
854033,498,461,463
854034,550,461,464
854035,550,460,460
854036,553,462,464
854037,557,461,463
854038,562,462,462
854039,570,460,462
854040,577,459,462
854041,586,462,460
854042,598,461,464
854043,608,462,462
854044,615,462,463
854045,621,461,462
854046,626,461,461
854047,630,460,463
854048,632,462,464
854049,630,459,464
854050,627,461,461
854051,628,462,462
854052,373,461,462
854053,251,461,459
854054,373,461,462
854055,376,462,462
854056,380,462,463
854057,390,461,463
854058,398,463,462
854059,404,461,463
854060,414,463,460
854061,423,460,463
854062,428,462,461
854063,436,462,462
854064,443,462,462
854065,441,461,463
854066,441,461,463
854067,443,460,463
854068,446,462,463
854069,451,461,463
854070,455,462,463
854071,459,460,460
854072,49,464,462
854073,5,459,462
854074,110,457,462
854075,125,461,462
854076,133,461,464
854077,152,461,462
854078,164,459,463
854079,178,459,463
854080,192,461,461
854081,205,460,462
854082,222,462,463
854083,229,461,463
854084,245,461,463
854085,254,463,463
854086,256,461,462
854087,261,460,463
854088,268,464,462
854089,272,461,464
854090,276,462,463
854091,280,461,462
854092,6,461,462
854094,51,462,462
854095,66,462,463
854096,85,459,462
854097,101,461,463
854097,117,462,462
854098,135,461,462
854099,152,462,461
854100,170,459,461
854101,186,461,462
854102,203,461,463
854103,218,461,462
854104,231,461,464
854105,245,460,462
854106,260,459,462
854107,271,461,462
854108,280,462,463
854109,293,459,463
854110,305,458,462
854111,257,458,461
854112,5,458,461
854113,0,461,462
854114,1,460,462
854115,59,461,460
854116,87,461,460
854117,111,461,461
854118,137,461,461
854119,163,459,461
854120,188,460,462
854121,214,461,462
854122,236,459,459
854123,263,461,459
854124,290,460,462
854125,315,460,463
854126,338,461,460
854127,361,461,462
854128,382,460,462
854129,402,461,462
854130,416,463,461
854131,238,460,463
854132,4,458,463
854133,1,460,459
854134,2,461,458
854135,66,460,462
854136,100,458,463
854137,131,460,462
854138,161,457,461
854139,191,460,461
854140,223,461,459
854141,257,460,462
854142,291,461,461
854143,323,458,462
854144,358,459,463
854145,386,459,460
854146,420,459,461
854147,449,461,462
854148,475,460,458
854149,503,460,462
854150,525,461,462
854151,373,460,462
854152,7,460,461
854153,3,461,459
854154,1,459,462
854155,94,460,462
854156,140,459,462
854157,184,460,461
854158,227,460,462
854159,272,461,461
854160,310,461,460
854161,350,461,459
854162,391,460,460
854163,428,461,460
854164,465,459,459
854165,503,457,462
854166,540,459,463
854167,576,460,463
854168,608,461,463
854169,635,460,462
854170,662,461,461
854171,459,458,462
854172,10,464,460
854173,3,458,461
854174,1,460,462
854175,107,461,463
854176,154,461,462
854177,196,461,462
854178,244,461,462
854179,287,459,461
854180,335,461,462
854181,379,460,462
854182,426,461,461
854183,472,460,461
854184,518,460,462
854185,560,461,460
854186,600,460,459
854187,640,460,462
854188,679,460,462
854189,711,458,461
854190,736,460,461
854191,486,458,463
854192,9,457,463
854193,3,461,462
854194,2,460,462
854195,123,460,461
854196,176,461,460
854197,229,460,462
854198,276,458,460
854199,325,460,460
854200,372,462,461
854201,419,460,459
854202,470,459,463
854203,517,460,461
854204,563,462,462
854205,608,460,461
854206,651,461,462
854207,691,461,461
854208,729,459,462
854209,764,461,460
854210,793,462,461
854211,416,460,462
854212,8,461,462
854213,2,461,460
854214,2,461,462
854215,126,460,462
854216,187,461,461
854217,242,460,462
854218,294,460,461
854219,351,461,462
854220,404,460,462
854221,462,460,462
854222,519,461,459
854223,574,460,461
854224,626,459,461
854225,676,460,464
854226,720,460,461
854227,765,461,463
854228,803,460,459
854229,837,459,459
854230,846,462,459
854231,301,460,462
854232,8,461,462
854233,3,460,462
854234,1,459,462
854235,134,462,461
854236,207,461,461
854237,274,462,461
854238,343,460,461
854239,407,461,462
854240,471,460,461
854241,538,459,463
854242,598,458,461
854243,659,461,462
854244,716,462,461
854245,768,459,458
854246,819,458,461
854247,867,458,459
854248,915,457,461
854249,957,460,460
854250,833,461,461
854251,214,461,462
854252,11,463,460
854253,4,460,462
854254,1,462,462
854255,131,461,461
854256,221,458,461
854257,297,461,461
854258,367,460,460
854259,436,459,461
854260,505,461,460
854261,578,458,461
854262,650,461,462
854263,715,460,460
854264,779,458,462
854265,841,461,462
854266,895,459,461
854267,950,461,462
854268,1004,460,460
854269,1023,459,461
854270,762,459,461
854271,157,460,460
854272,9,460,460
854273,2,461,461
854274,2,462,461
854275,143,460,462
854276,245,458,462
854277,330,461,462
854278,419,460,462
854279,504,460,462
854280,589,457,460
854281,668,458,460
854282,744,459,461
854283,817,460,462
854284,890,461,462
854285,957,460,461
854286,1021,458,461
854287,1023,460,459
854288,922,459,463
854289,741,459,461
854290,658,461,460
854291,140,461,460
854292,8,459,462
854293,4,461,462
854294,1,460,461
854295,157,460,461
854296,273,461,461
854297,373,460,461
854298,469,459,462
854299,569,460,462
854300,663,460,460
854301,753,459,460
854302,836,460,462
854303,923,460,462
854304,1004,459,461
854305,1023,461,460
854306,852,462,463
854307,744,459,460
854308,754,478,477
854309,755,481,479
854310,640,463,462
854311,197,462,463
854312,10,462,463
854313,2,462,463
854314,0,460,462
854315,177,462,462
854316,306,462,462
854317,422,461,463
854318,529,461,462
854319,637,462,461
854320,740,461,459
854321,843,461,463
854322,939,461,461
854323,1023,460,461
854324,1023,460,461
854325,741,460,461
854326,752,471,473
854327,754,481,479
854328,753,480,479
854329,756,482,479
854330,636,462,461
854331,186,461,462
854332,10,459,461
854333,3,463,464
854334,2,462,462
854335,198,460,462
854336,335,460,460
854337,456,460,461
854338,575,460,459
854339,692,461,461
854340,807,460,461
854341,907,462,461
854342,1011,461,462
854343,1023,460,461
854344,741,460,461
854345,755,480,476
854346,754,482,479
854347,755,481,479
854348,753,481,480
854349,754,480,478
854350,707,462,463
854351,229,462,464
854352,12,462,461
854353,4,460,463
854354,3,460,462
854355,225,457,463
854356,371,459,462
854357,501,461,460
854358,625,461,463
854359,750,460,461
854360,865,459,459
854361,975,461,460
854362,1023,461,463
854363,737,461,461
854364,752,472,475
854365,754,480,477
854366,754,482,478
854367,754,481,479
854368,755,481,476
854369,755,482,478
854370,900,460,464
854371,365,461,462
854372,13,462,462
854373,6,460,462
854374,3,460,463
854375,273,462,462
854376,411,461,462
854377,541,460,464
854378,672,460,463
854379,798,461,463
854380,908,462,461
854381,1023,460,461
854382,1023,483,465
854383,746,459,460
854384,755,481,478
854385,753,480,478
854386,753,480,478
854387,755,482,480
854388,755,482,479
854389,754,481,479
854390,1023,460,462
854391,469,461,462
854392,40,459,462
854393,7,459,462
854394,3,461,460
854395,311,460,463
854396,446,462,458
854397,575,459,461
854398,703,459,461
854399,823,462,462
854400,939,460,461
854401,1023,461,461
854402,872,462,462
854403,748,460,460
854404,754,480,479
854405,755,482,479
854406,755,483,478
854407,754,481,480
854408,754,482,478
854409,754,482,478
854410,859,462,463
854411,524,460,461
854412,97,462,464
854413,10,460,463
854414,48,462,461
854415,331,462,460
854416,462,461,463
854417,587,460,465
854418,711,461,464
854419,824,462,463
854420,934,460,462
854421,1023,461,460
854422,963,466,462
854423,747,457,460
854424,755,481,478
854425,753,483,478
854426,754,482,479
854427,754,480,480
854428,752,481,479
854429,755,481,479
854430,740,459,465
854431,577,460,461
854432,138,462,463
854433,8,461,463
854434,111,461,462
854435,367,460,462
854436,488,461,464
854437,613,458,462
854438,729,461,462
854439,841,461,462
854440,947,461,461
854441,1023,461,460
854442,923,462,463
854443,747,460,465
854444,754,480,478
854445,754,480,477
854446,755,481,479
854447,754,479,480
854448,755,479,478
854449,755,481,478
854450,740,462,462
854451,570,461,463
854452,134,461,463
854453,10,462,463
854454,161,460,462
854455,377,460,461
854456,499,462,463
854457,616,460,464
854458,733,459,461
854459,842,460,461
854460,943,459,461
854461,1023,461,458
854462,1023,474,466
854463,746,459,460
854464,754,480,478
854465,754,481,479
854466,754,482,479
854467,754,480,479
854468,755,482,478
854469,755,480,478
854470,741,460,462
854471,567,459,461
854472,127,462,455
854473,10,460,461
854474,185,457,461
854475,374,461,462
854476,491,460,461
854477,611,459,461
854478,725,460,462
854479,829,462,462
854480,930,460,460
854481,1023,460,462
854482,1023,481,467
854483,743,459,461
854484,755,482,478
854485,754,480,480
854486,754,479,480
854487,754,480,480
854488,755,481,479
854489,755,481,480
854490,752,462,462
854491,521,462,463
854492,94,461,462
854493,9,462,462
854494,143,461,460
854495,343,462,462
854496,457,459,461
854497,569,462,462
854498,678,462,461
854499,784,459,462
854500,882,461,461
854501,981,460,461
854502,1023,460,462
854503,736,461,463
854504,748,460,461
854505,754,481,478
854506,753,480,479
854507,755,482,479
854508,753,480,479
854509,754,481,478
854510,1010,468,467
854511,492,460,464
854512,57,459,463
854513,9,460,463
854514,146,463,463
854515,333,460,464
854516,449,462,462
854517,563,461,463
854518,668,461,463
854519,773,460,462
854520,872,461,461
854521,972,462,463
854522,1023,461,462
854523,947,464,464
854524,746,459,462
854525,754,478,479
854526,755,479,479
854527,754,482,477
854528,754,481,477
854529,754,482,478
854530,741,460,463
854531,531,461,463
854532,98,460,462
854533,7,460,462
854534,271,461,463
854535,387,459,461
854536,498,459,461
854537,607,461,462
854538,710,460,460
854539,806,460,463
854540,905,459,461
854541,996,460,462
854542,1023,458,461
854543,736,462,463
854544,750,459,457
854545,754,480,481
854546,754,481,477
854547,755,483,479
854548,754,480,477
854549,755,480,479
854550,753,476,464
854551,610,462,463
854552,165,460,463
854553,154,463,462
854554,422,461,460
854555,533,461,459
854556,640,460,461
854557,737,460,462
854558,829,460,461
854559,920,459,461
854560,1005,460,462
854561,1023,459,460
854562,736,461,462
854563,749,459,460
854564,756,481,478
854565,755,482,479
854566,754,480,480
854567,753,481,479
854568,754,481,479
854569,755,481,479
854570,755,476,476
854571,650,460,463
854572,170,460,462
854573,223,462,462
854574,456,461,461
854575,559,462,460
854576,659,461,461
854577,754,462,462
854578,838,462,462
854579,922,457,462
854580,1005,460,460
854581,1023,460,460
854582,748,460,462
854583,748,461,460
854584,755,481,480
854585,755,482,479
854586,756,481,479
854587,755,481,480
854588,753,481,480
854589,754,482,481
854590,754,478,469
854591,593,463,462
854592,150,462,464
854593,148,459,462
854594,424,461,462
854595,520,461,462
854596,621,461,463
854597,714,462,463
854598,807,460,461
854599,892,461,461
854600,971,459,461
854601,1023,458,460
854602,1023,482,466
854603,743,459,460
854604,751,468,467
854605,754,483,479
854606,754,482,477
854607,754,480,478
854608,753,481,480
854609,755,480,480
854610,750,470,461
854611,545,461,462
854612,115,462,462
854613,134,460,462
854614,378,461,462
854615,474,461,460
854616,569,461,460
854617,659,461,459
854618,744,459,460
854619,835,458,461
854620,918,459,461
854621,992,458,461
854622,1023,461,462
854623,952,463,467
854624,742,459,460
854625,752,472,472
854626,754,478,479
854627,754,482,479
854628,754,480,480
854629,755,483,479
854630,747,462,462
854631,510,463,463
854632,75,461,462
854633,88,461,462
854634,337,459,461
854635,428,461,458
854636,520,459,457
854637,607,460,459
854638,685,460,462
854639,774,458,461
854640,853,459,460
854641,932,460,461
854642,1006,461,461
854643,1023,460,461
854644,915,461,461
854645,744,460,461
854646,751,472,473
854647,753,482,480
854648,754,481,479
854649,754,483,478
854650,745,462,462
854651,490,460,463
854652,52,461,463
854653,59,461,462
854654,315,461,461
854655,417,461,463
854656,511,461,461
854657,604,461,461
854658,692,460,461
854659,770,460,461
854660,844,459,463
854661,913,460,460
854662,984,461,461
854663,1023,461,461
854664,1023,461,462
854665,738,461,463
854666,745,462,460
854667,755,480,479
854668,754,482,479
854669,755,483,477
854670,740,461,460
854671,460,463,461
854672,27,462,461
854673,21,461,461
854674,287,462,464
854675,381,462,463
854676,469,461,461
854677,553,462,461
854678,637,460,462
854679,719,461,461
854680,798,462,460
854681,875,460,462
854682,948,461,461
854683,1022,461,463
854684,1023,462,461
854685,760,461,461
854686,744,460,460
854687,752,474,474
854688,754,482,478
854689,754,482,479
854690,747,462,463
854691,439,462,464
854692,20,460,463
854693,72,460,464
854694,294,461,459
854695,391,460,462
854696,489,462,462
854697,585,461,463
854698,678,461,460
854699,764,459,461
854700,846,460,462
854701,923,459,462
854702,992,458,461
854703,1023,458,462
854704,1023,481,467
854705,738,460,461
854706,746,460,462
854707,753,479,477
854708,755,480,479
854709,756,482,478
854710,747,459,462
854711,487,462,463
854712,139,462,463
854713,247,460,463
854714,461,460,458
854715,558,460,461
854716,647,460,460
854717,731,460,461
854718,806,459,461
854719,877,459,460
854720,944,461,460
854721,1009,461,461
854722,1023,461,462
854723,930,462,464
854724,742,459,461
854725,751,466,465
854726,755,480,479
854727,754,482,479
854728,755,482,479
854729,755,482,480
854730,754,482,464
854731,544,461,464
854732,266,462,463
854733,409,461,461
854734,586,461,464
854735,664,461,462
854736,740,460,462
854737,812,460,462
854738,887,460,462
854739,958,460,460
854740,1023,459,460
854741,1023,460,461
854742,737,461,461
854743,745,462,463
854744,753,479,478
854745,755,482,481
854746,754,481,479
854747,754,481,482
854748,754,483,479
854749,754,483,478
854750,754,481,481
854751,611,463,463
854752,405,462,463
854753,605,461,462
854754,693,461,462
854755,765,460,458
854756,837,460,462
854757,908,460,461
854758,981,461,461
854759,1023,461,461
854760,1023,460,462
854761,736,460,461
854762,747,460,459
854763,754,479,476
854764,755,482,479
854765,754,482,481
854766,755,482,479
854767,754,480,480
854768,754,481,479
854769,754,481,479
854770,753,480,481
854771,638,462,464
854772,465,461,463
854773,701,460,462
854774,780,460,460
854775,850,460,462
854776,912,460,458
854777,972,461,462
854778,1023,460,462
854779,1023,461,462
1741019439135,NEW REP,,
854780,1023,473,466
854781,737,461,462
854782,745,460,461
854783,751,474,474
854784,755,482,480
854785,754,482,482
854786,754,480,478
854787,755,482,477
854788,755,481,480
854789,754,482,478
854790,755,482,481
854791,653,461,463
854792,492,462,463
854793,709,462,462
854794,773,461,462
854795,835,460,462
854796,893,459,461
854797,956,459,460
854798,1014,461,458
854799,1023,461,459
854800,1023,482,467
854801,736,462,463
854802,746,460,461
854803,751,471,469
854804,754,481,478
854805,754,481,480
854806,754,481,479
854807,754,482,479
854808,755,482,481
854809,755,480,480
854810,754,483,475
854811,697,460,463
854812,571,462,462
854813,795,462,462
854814,856,457,461
854815,912,461,461
854816,961,460,463
854817,1016,458,460
854818,1023,458,460
854819,1023,460,460
854820,754,461,462
854821,742,457,462
854822,749,460,462
854823,754,481,479
854824,753,483,478
854825,753,480,479
854826,754,481,480
854827,754,481,479
854828,753,480,478
854829,755,481,478
854830,755,481,478
854831,731,462,462
854832,683,460,463
854833,852,460,462
854834,904,458,463
854835,955,460,458
854836,1005,461,459
854837,1023,459,461
854838,1023,460,461
854839,807,459,462
854840,740,460,461
854841,749,459,459
854842,753,477,475
854843,755,479,478
854844,754,482,479
854845,755,481,478
854846,753,482,479
854847,754,479,480
854848,755,481,479
854849,755,481,479
854850,753,480,482
854851,769,460,463
854852,726,461,462
854853,889,460,460
854854,935,462,463
854855,980,461,460
854856,1018,459,460
854857,1023,460,462
854858,1023,460,462
854859,967,464,464
854860,736,460,461
854861,744,459,462
854862,750,459,461
854863,754,481,479
854864,754,480,479
854865,753,479,479
854866,754,483,480
854867,753,481,479
854868,754,481,479
854869,754,481,478
854870,755,478,466
854871,732,462,461
854872,679,460,462
854873,849,461,464
854874,892,462,462
854875,931,458,462
854876,972,459,461
854877,1010,460,461
854878,1023,458,461
854879,1023,460,461
854880,1023,466,462
854881,765,460,464
854882,739,460,461
854883,745,460,458
854884,750,458,461
854885,753,479,477
854886,754,480,478
854887,754,481,479
854888,754,483,479
854889,754,481,481
854890,748,460,461
854891,643,459,462
854892,594,462,463
854893,763,461,460
854894,810,458,461
854895,853,457,461
854896,892,459,460
854897,929,460,460
854898,969,459,461
854899,1008,460,461
854900,1023,458,461
854901,1023,459,462
854902,1023,461,461
854903,819,459,461
854904,737,459,461
854905,744,458,462
854906,748,460,461
854907,750,464,463
854908,755,481,479
854909,754,482,478
854910,753,460,463
854911,678,462,461
854912,675,462,461
854913,810,459,464
854914,849,459,463
854915,888,460,461
854916,924,460,461
854917,957,460,458
854918,996,456,460
854919,1023,460,460
854920,1023,460,460
854921,1023,460,461
854922,1023,481,463
854923,740,460,462
854924,739,460,461
854925,745,459,460
854926,748,461,462
854927,752,472,472
854928,754,481,478
854929,754,479,479
854930,753,468,468
854931,784,461,462
854932,795,461,460
854933,929,460,457
854934,963,460,459
854935,994,460,458
854936,1023,461,461
854937,1023,459,461
854938,1023,460,462
854939,1023,487,465
854940,868,460,461
854941,736,459,462
854942,742,460,460
854943,747,459,462
854944,749,461,459
854945,754,480,479
854946,753,481,478
854947,754,481,477
854948,754,480,477
854949,754,481,479
854950,755,482,480
854951,892,458,462
854952,1023,458,461
854953,1023,461,462
854954,1023,458,460
854955,1023,461,463
854956,911,463,463
854957,736,460,461
854958,741,461,462
854959,746,459,462
854960,749,459,460
854961,753,477,476
854962,754,481,481
854963,755,481,478
854964,755,482,481
854965,754,481,480
854966,754,481,478
854967,755,481,478
854968,755,478,478
854969,754,480,477
854970,754,482,480
854971,1016,461,463
854972,1023,460,462
854973,977,463,465
854974,736,462,462
854975,738,465,461
854976,743,459,461
854977,745,460,461
854978,750,460,461
854979,752,467,468
854980,754,482,479
854981,755,482,478
854982,755,481,478
854983,755,480,479
854984,753,480,478
854985,755,481,477
854986,755,481,479
854987,754,481,479
854988,755,480,480
854989,755,481,479
854990,754,482,479
854991,1023,460,463
854992,739,462,460
854993,742,459,460
854994,746,461,461
854995,748,457,461
854996,752,462,465
854997,754,479,477
854998,754,481,479
854999,755,482,478
855000,754,482,477
855001,755,481,480
855002,754,480,478
855003,754,481,478
855004,753,479,478
855005,755,482,478
855006,755,482,480
855007,753,480,479
855008,754,480,480
855009,755,482,479
855010,754,481,480
855011,928,461,464
855012,745,460,462
855013,747,458,462
855014,746,458,459
855015,746,461,462
855016,746,458,461
855017,748,460,462
855018,749,459,460
855019,750,460,462
855020,752,472,472
855021,754,481,479
855022,754,480,478
855023,755,480,480
855024,754,480,478
855025,755,483,479
855026,755,480,480
855027,755,481,480
855028,755,482,479
855029,755,481,479
855030,755,482,477
855031,1023,458,463
855032,1023,459,459
855033,1023,485,466
855034,1023,475,468
855035,901,461,463
855036,767,462,461
855037,736,457,460
855038,738,460,462
855039,743,460,462
855040,744,460,461
855041,747,459,462
855042,750,460,461
855043,751,462,465
855044,752,472,472
855045,754,474,475
855046,754,473,473
855047,753,473,473
855048,753,473,474
855049,754,476,475
855050,753,461,463
855051,913,462,463
855052,1023,460,463
855053,1023,460,461
855054,1023,460,462
855055,1023,459,462
855056,1023,461,459
855057,1023,459,460
855058,1023,486,463
855059,1023,479,466
855060,1003,471,466
855061,905,463,464
855062,815,462,462
855063,736,462,462
855064,738,460,461
855065,739,461,461
855066,741,458,461
855067,742,461,461
855068,744,459,460
855069,746,460,460
855070,747,457,461
855071,853,457,461
855072,956,460,462
855073,964,462,460
855074,969,460,459
855075,983,461,460
855076,989,461,459
855077,1002,461,460
855078,1014,460,460
855079,1023,460,460
855080,1023,460,458
855081,1023,459,461
855082,1023,456,461
855083,1023,459,460
855084,1023,460,460
855085,1023,459,456
855086,1023,460,462
855087,1023,463,461
855088,1023,484,466
855089,1023,484,465
855090,1001,462,464
855091,611,462,463
855092,764,461,463
855093,788,459,462
855094,807,460,463
855095,825,461,461
855096,835,460,460
855097,852,459,462
855098,864,459,462
855099,870,462,464
855100,881,461,462
855101,890,461,461
855102,903,461,462
855103,918,460,462
855104,930,460,463
855105,942,462,461
855106,953,462,461
855107,965,461,461
855108,979,459,461
855109,986,461,464
855110,901,460,463
855111,524,461,462
855112,682,459,461
855113,698,461,463
855114,713,462,462
855115,727,459,463
855116,743,461,461
855117,748,462,460
855118,759,460,461
855119,770,459,463
855120,783,460,462
855121,798,460,462
855122,813,461,461
855123,827,457,462
855124,840,461,461
855125,860,462,462
855126,872,460,461
855127,885,461,459
855128,897,461,461
855129,903,462,463
855130,778,462,461
855131,398,461,460
855132,531,462,462
855133,553,461,462
855134,565,461,461
855135,578,460,462
855136,588,462,461
855137,605,461,462
855138,621,462,461
855139,639,459,463
855140,658,459,461
855141,679,459,461
855142,697,461,462
855143,711,463,462
855144,731,460,460
855145,744,462,464
855146,756,461,462
855147,760,461,461
855148,763,462,462
855149,764,461,461
855150,510,461,463
855151,100,460,463
855152,257,464,463
855153,290,461,462
855154,314,462,462
855155,337,461,463
855156,361,462,462
855157,384,461,462
855158,404,461,462
855159,424,460,462
855160,444,460,463
855161,457,461,463
855162,476,462,462
855163,493,459,463
855164,509,461,459
855165,526,458,461
855166,538,461,463
855167,558,462,464
855168,570,461,463
855169,580,457,461
855170,297,461,462
855171,9,461,461
855172,108,459,462
855173,138,462,461
855174,161,459,462
855175,178,461,459
855176,197,461,461
855177,212,460,460
855178,228,456,463
855179,244,462,461
855180,264,461,462
855181,281,459,462
855182,304,461,462
855183,331,460,463
855184,350,460,462
855185,374,460,460
855186,398,459,462
855187,417,461,462
855188,436,461,461
855189,455,459,462
855190,163,460,458
855191,5,460,461
855192,83,461,460
855193,123,459,461
855194,149,457,461
855195,170,461,463
855196,193,459,461
855197,215,459,462
855198,236,462,461
855199,257,461,461
855200,283,461,462
855201,305,460,460
855202,328,460,462
855203,345,460,460
855204,358,461,463
855205,366,462,462
855206,376,457,461
855207,386,459,462
855208,397,460,462
855209,414,460,461
855210,112,460,460
855211,5,461,462
855212,82,462,460
855213,126,461,462
855214,154,460,462
855215,179,460,462
855216,200,460,461
855217,226,460,463
855218,250,460,464
855219,276,456,462
855220,300,461,460
855221,326,459,462
855222,349,461,459
855223,372,459,461
855224,394,460,461
855225,411,460,462
855226,429,461,460
855227,444,461,461
855228,460,461,461
855229,474,461,461
855230,209,457,462
855231,7,460,462
855232,97,460,461
855233,129,461,460
855234,152,461,461
855235,173,460,462
855236,197,458,461
855237,219,461,460
855238,248,460,461
855239,276,461,462
855240,302,460,462
855241,324,460,462
855242,340,461,461
855243,353,461,458
855244,364,460,462
855245,377,459,461
855246,389,459,461
855247,404,459,462
855248,424,460,462
855249,447,457,460
855250,154,461,462
855251,4,459,458
855252,99,459,462
855253,139,460,461
855254,170,459,462
855255,196,460,461
855256,222,461,462
855257,247,459,462
855258,268,460,458
855259,290,459,462
855260,307,461,462
855261,322,459,460
855262,333,459,462
855263,346,460,462
855264,361,461,460
855265,374,460,462
855266,393,461,459
855267,414,460,462
855268,437,461,461
855269,458,461,461
855270,113,461,460
855271,6,460,462
855272,91,460,461
855273,135,459,462
855274,160,462,459
855275,184,461,462
855276,211,460,459
855277,236,461,460
855278,262,461,461
855279,284,459,463
855280,308,461,459
855281,327,461,461
855282,352,460,462
855283,373,461,460
855284,393,458,461
855285,407,462,461
855286,421,462,459
855287,432,461,460
855288,443,458,461
855289,457,460,461
855290,65,463,459
855291,4,461,461
855292,78,461,462
855293,123,461,462
855294,149,461,459
855295,175,460,462
855296,197,460,461
855297,224,461,461
855298,247,460,461
855299,272,458,463
855300,297,461,461
855301,319,459,462
855302,341,458,461
855303,362,461,461
855304,382,459,460
855305,405,460,460
855306,423,460,460
855307,444,459,461
855308,459,461,462
855309,473,461,461
855310,11,459,462
855311,4,461,461
855312,69,458,462
855313,108,460,459
855314,133,461,460
855315,161,461,461
855316,189,460,461
855317,216,460,460
855318,246,463,462
855319,272,460,462
855320,298,460,462
855321,325,461,461
855322,352,460,461
855323,377,459,462
855324,399,459,463
855325,422,458,462
855326,443,461,462
855327,460,461,462
855328,479,460,461
855329,498,460,462
855330,10,461,460
855331,3,460,462
855332,6,459,461
855333,103,461,461
855334,138,459,461
855335,172,459,461
855336,204,460,460
855337,235,462,461
855338,267,459,460
855339,295,460,462
855340,326,460,461
855341,356,461,462
855342,384,460,461
855343,409,461,459
855344,435,460,459
855345,460,460,462
855346,487,460,461
855347,511,460,460
855348,534,458,461
855349,549,461,460
855350,9,460,461
855351,4,461,464
855352,1,460,461
855353,107,461,461
855354,145,461,461
855355,183,459,461
855356,220,458,461
855357,260,460,462
855358,295,459,461
855359,331,460,461
855360,367,461,460
855361,403,461,462
855362,437,460,459
855363,472,458,461
855364,505,458,461
855365,535,462,460
855366,567,460,461
855367,593,460,462
855368,616,461,463
855369,615,461,461
855370,12,460,462
855371,4,461,462
855372,2,459,462
855373,114,460,462
855374,161,459,463
855375,206,459,461
855376,250,462,461
855377,292,460,457
855378,336,459,460
855379,378,460,461
855380,419,459,461
855381,459,460,462
855382,500,458,462
855383,542,461,462
855384,579,459,466
855385,615,460,461
855386,649,462,458
855387,681,461,461
855388,711,459,461
855389,644,462,463
855390,12,460,460
855391,4,460,459
855392,2,460,462
855393,122,461,460
855394,179,460,460
855395,232,462,461
855396,283,461,461
855397,332,460,461
855398,382,461,461
855399,429,460,459
855400,479,461,462
855401,527,460,461
855402,570,460,462
855403,617,459,461
855404,659,461,460
855405,699,459,461
855406,737,461,461
855407,769,461,459
855408,805,460,460
855409,778,459,460
855410,17,460,461
855411,7,460,461
855412,4,460,462
855413,165,460,459
855414,222,460,458
855415,280,460,462
855416,332,460,461
855417,387,461,460
855418,439,458,462
855419,489,459,461
855420,541,460,461
855421,594,459,460
855422,639,459,458
855423,685,460,460
855424,727,459,463
855425,766,461,460
855426,809,459,461
855427,843,460,459
855428,878,460,459
855429,922,460,461
855430,248,459,461
855431,12,461,461
855432,241,461,461
855433,282,459,461
855434,334,460,461
855435,388,457,460
855436,435,459,459
855437,490,460,462
855438,540,460,462
855439,592,459,462
855440,634,456,461
855441,682,459,459
855442,730,458,461
855443,770,460,461
855444,812,457,461
855445,850,458,460
855448,957,458,461
855448,984,460,460
855449,568,461,461
855450,333,459,460
855451,558,462,461
855452,598,461,461
855453,639,460,462
855454,678,465,460
855455,718,459,459
855456,753,460,458
855457,790,457,461
855457,829,460,461
855458,867,461,458
855459,905,460,462
855460,941,461,461
855461,977,460,462
855462,1008,459,462
855463,1023,459,461
855464,1023,460,461
855465,1023,460,459
855466,1023,459,461
855467,881,462,463
855468,736,456,461
855469,742,460,459
855470,839,459,461
855471,767,460,460
855472,912,461,461
855473,949,460,461
855474,983,460,460
855475,1017,458,459
855476,1023,460,462
855477,1023,460,460
855478,1023,483,463
855479,877,461,463
855480,737,461,461
855481,744,460,461
855482,747,460,460
855483,752,461,464
855484,755,481,479
855485,754,480,479
855486,755,480,480
855487,755,481,479
855488,753,481,481
855489,754,481,479
855490,893,461,463
855491,840,461,461
855492,968,459,462
855493,998,458,461
855494,1023,459,462
855495,1023,461,460
855496,1023,459,461
855497,1023,469,466
855498,789,461,462
855499,738,460,459
855500,743,459,460
855501,747,459,460
855502,751,458,464
855503,753,479,477
855504,753,480,480
855505,754,481,480
855506,755,481,480
855507,755,481,478
855508,754,480,478
855509,754,482,479
855510,862,462,463
855511,833,461,459
855512,955,459,462
855513,990,460,461
855514,1021,459,460
855515,1023,459,460
855516,1023,462,461
855517,1023,459,461
855518,1023,476,462
855519,742,462,463
855520,739,460,461
855521,744,461,462
855522,748,460,462
855523,752,462,463
855524,753,477,475
855525,755,481,480
855526,753,480,479
855527,755,482,479
855528,755,481,479
855529,754,479,478
855530,972,458,463
855531,1012,461,459
855532,1023,457,460
855533,1023,460,462
855534,1023,484,465
855535,825,458,461
855536,737,461,461
855537,742,461,461
855538,745,459,460
855539,747,457,457
855540,750,459,461
855541,754,475,475
855542,754,482,480
855543,754,481,478
855544,754,481,479
855545,754,481,479
855546,755,482,477
855547,755,480,479
855548,754,482,482
855549,754,481,479
855550,1023,460,462
855551,736,459,462
855552,739,461,462
855553,742,460,460
855554,746,459,462
855555,746,460,461
855556,750,459,460
855557,752,467,469
855558,755,481,480
855559,754,482,479
855560,755,480,480
855561,754,481,479
855562,754,482,479
855563,755,481,477
855564,754,480,478
855565,755,479,479
855566,756,481,478
855567,754,480,477
855568,755,482,478
855569,755,481,479
855570,931,466,464
855571,742,459,461
855572,744,459,459
855573,746,458,460
855574,748,458,461
855575,749,459,461
855576,750,461,462
855577,753,474,472
855578,753,479,480
855579,755,481,478
855580,754,481,478
855581,754,480,478
855582,754,480,479
855583,755,482,480
855584,754,480,479
855585,755,480,479
855586,754,481,479
855587,754,483,478
855588,756,481,480
855589,754,480,478
855590,740,462,462
855591,745,460,460
855592,747,460,462
855593,747,458,462
855594,749,459,460
855595,750,460,462
855596,751,467,465
855597,753,473,475
855598,755,480,476
855599,754,481,478
855600,755,481,477
855601,754,480,479
855602,755,481,479
855603,754,482,478
855604,753,480,478
855605,754,482,478
855606,755,482,477
855607,754,481,479
855608,756,481,478
855609,754,482,479
855610,748,460,463
855611,753,468,470
855612,753,476,473
855613,754,481,478
855614,754,479,478
855615,753,480,480
855616,754,479,478
855617,754,480,479
855618,754,480,477
855619,754,479,481
855620,755,483,478
855621,755,480,480
855622,755,479,480
855623,754,482,479
855624,755,481,479
855625,754,480,479
855626,756,481,478
855627,754,478,480
855628,755,481,476
855629,755,479,478
855630,754,482,477
855631,754,482,477
855632,753,481,478
855633,754,480,480
855634,754,482,478
855635,755,480,477
855636,755,481,479
855637,754,480,478
855638,754,481,480
855639,754,481,478
855640,754,480,478
855641,754,482,480
855642,754,481,479
855643,754,480,479
855644,753,481,477
855645,753,481,479
855646,756,481,478
855647,755,480,478
855648,755,480,479
855649,754,475,475
855650,752,469,469
855651,751,463,463
855652,750,462,463
855653,748,461,462
855654,748,461,462
855655,748,459,460
855656,749,459,462
855657,750,459,461
855658,750,459,462
855659,750,462,462
855660,752,467,467
855661,751,470,469
855662,753,466,469
855663,752,465,463
855664,750,463,464
855665,751,458,461
855666,749,461,462
855667,748,459,461
855668,748,458,460
855669,748,459,458
855670,748,457,461
855671,748,459,461
855672,747,459,461
855673,745,458,462
855674,746,459,461
855675,745,459,462
855676,745,459,461
855677,746,460,462
855678,746,459,460
855679,746,458,459
855680,747,458,459
855681,748,460,462
855682,746,459,460
855683,748,460,460
855684,746,459,462
855685,745,459,462
855686,744,460,462
855687,741,460,461
855688,741,459,461
855689,739,459,461
855690,737,460,460
855691,736,461,460
855692,760,461,462
855693,857,460,462
855694,935,464,460
855695,1006,473,464
855696,1023,473,464
855697,1023,480,466
855698,1023,480,464
855699,1023,475,466
855700,1007,472,466
855701,943,463,464
855702,843,458,461
855703,793,458,461
855704,767,458,462
855705,769,461,461
855706,790,460,461
855707,906,462,465
855708,1023,474,466
855709,1023,482,465
855710,1023,463,461
855711,1023,460,462
855712,1023,460,461
855713,1023,460,463
855714,1023,461,459
855715,1023,459,463
855716,1023,462,463
855717,1023,460,462
855718,1023,460,462
855719,1023,460,464
855720,1023,461,459
855721,1023,461,463
855722,1023,461,462
855723,1023,462,462
855724,1023,459,462
855725,1023,460,461
855726,1023,460,461
855727,1023,460,461
855728,1023,460,463
855729,1023,461,461
855730,905,460,462
855731,954,460,463
855732,956,462,461
855733,953,460,461
855734,953,460,465
855735,951,461,460
855736,953,461,462
855737,957,460,464
855738,959,459,461
855739,961,462,463
855740,963,461,462
855741,958,462,460
855742,959,460,463
855743,956,460,462
855744,953,462,461
855745,952,461,462
855746,949,460,462
855747,948,462,462
855748,942,462,461
855749,940,459,462
855750,687,462,462
855751,792,459,462
855752,792,462,463
855753,790,459,461
855754,792,463,462
855755,792,459,462
855756,796,462,460
855757,803,460,462
855758,807,459,461
855759,813,461,462
855760,820,460,462
855761,826,460,462
855762,829,461,460
855763,829,461,461
855764,832,462,461
855765,830,462,461
855766,835,461,462
855767,834,463,461
855768,832,461,462
855769,785,461,461
855770,455,457,462
855771,579,461,462
855772,589,463,462
855773,592,463,463
855774,601,460,464
855775,606,459,462
855776,613,462,462
855777,620,461,462
855778,629,460,461
855779,637,462,462
855780,641,462,462
855781,649,461,463
855782,651,463,461
855783,655,459,459
855784,661,460,461
855785,667,462,461
855786,675,462,461
855787,686,460,463
855788,688,462,463
855789,557,462,463
855790,160,462,462
855791,323,461,462
855792,329,463,461
855793,343,459,462
855794,359,462,462
855795,373,462,462
855796,387,461,462
855797,399,462,462
855798,406,461,461
855799,421,463,463
855800,432,462,459
855801,445,461,462
855802,459,461,461
855803,472,462,462
855804,492,461,461
855805,496,459,461
855806,505,460,462
855807,514,461,462
855808,519,461,460
855809,289,460,462
855810,7,462,462
855811,44,461,463
855812,113,462,460
855813,129,462,463
855814,145,460,463
855815,163,463,461
855816,179,459,463
855817,193,461,463
855818,203,461,460
855819,218,461,463
855820,232,461,460
855821,245,462,462
855822,260,459,460
855823,276,461,462
855824,295,461,462
855825,307,461,462
855826,324,461,461
855827,337,460,462
855828,348,461,462
855829,10,461,459
855830,4,461,461
855831,1,460,462
855832,64,460,462
855833,86,459,461
855834,106,460,461
855835,128,461,461
855836,147,461,462
855837,168,462,459
855838,192,461,461
855839,215,462,461
855840,237,461,462
855841,260,461,460
855842,281,462,462
855843,302,460,462
855844,314,461,459
855845,333,461,462
855846,346,460,460
855847,363,461,462
855848,371,462,461
855849,7,460,459
855850,3,460,461
855851,0,460,460
855852,43,462,461
855853,78,461,460
855854,106,461,463
855855,133,462,463
855856,157,461,459
855857,184,461,460
855858,209,463,462
855859,233,460,463
855860,263,461,463
855861,295,460,462
855862,325,460,461
855863,353,461,462
855864,380,460,461
855865,404,460,462
855866,425,461,461
855867,443,459,462
855868,293,461,462
855869,5,461,462
855870,4,459,462
855871,1,461,461
855872,20,461,462
855873,94,460,459
855874,139,459,462
855875,183,460,461
855876,224,463,463
855877,261,460,461
855878,297,459,461
855879,333,460,460
855880,367,461,460
855881,397,461,462
855882,430,461,462
855883,463,460,459
855884,498,459,461
855885,531,460,461
855886,558,459,462
855887,583,459,462
855888,470,461,462
855889,10,458,462
855890,3,462,462
855891,0,461,462
855892,54,462,462
855893,120,459,461
855894,171,460,459
855895,219,459,463
855896,271,460,462
855897,314,460,460
855898,358,459,462
855899,403,461,462
855900,443,460,461
855901,483,460,461
855902,523,461,461
855903,562,460,461
855904,600,461,461
855905,635,460,460
855906,669,460,462
855907,698,461,460
855908,590,461,461
855909,12,461,462
855910,4,461,462
855911,2,461,462
855912,79,460,462
855913,144,461,459
855914,199,461,460
855915,251,460,459
855916,305,459,461
855917,357,460,462
855918,407,460,463
855919,457,459,460
855920,509,460,462
855921,556,461,460
855922,605,461,461
855923,648,460,461
855924,692,457,462
855925,735,460,461
855926,774,460,461
855927,805,459,462
855928,647,460,461
855929,16,460,463
855930,6,461,463
855931,4,459,461
855932,81,461,463
855933,156,462,461
855934,219,461,461
855935,280,461,462
855936,338,462,462
855937,401,461,460
855938,461,461,462
855939,521,460,461
855940,579,460,462
855941,637,462,461
855942,690,459,461
855943,737,460,461
855944,780,461,459
855945,823,461,461
855946,863,458,460
855947,899,459,461
855948,661,461,459
855949,16,459,462
855950,5,459,461
855951,2,461,460
855952,92,460,462
855953,168,461,462
855954,234,461,461
855955,299,460,462
855956,359,461,462
855957,419,457,461
855958,480,462,462
855959,542,461,461
855960,605,461,461
855961,666,459,462
855962,721,459,461
855963,779,459,462
855964,833,461,461
855965,885,462,460
855966,932,460,461
855967,971,461,461
855968,618,460,461
855969,15,461,460
855970,6,462,461
855971,1,458,462
855972,100,463,460
855973,191,460,461
855974,272,461,459
855975,344,461,461
855976,416,460,461
855977,490,461,461
855978,562,461,459
855979,628,461,462
855980,694,460,461
855981,754,460,461
855982,809,460,461
855983,862,460,461
855984,911,457,460
855985,960,460,461
855986,1007,460,461
855987,1023,461,462
855988,458,461,458
855989,13,458,461
855990,5,460,461
855991,1,461,462
855992,76,459,462
855993,208,461,462
855994,300,461,461
855995,387,460,463
855996,468,461,460
855997,551,461,462
855998,632,458,460
855999,708,460,462
856000,781,460,461
856001,850,457,462
856002,915,459,461
856003,975,461,458
856004,1023,460,460
856005,1023,458,461
856006,875,459,461
856007,736,462,460
856008,383,460,461
856009,14,461,462
856010,6,462,462
856011,2,461,462
856012,2,462,462
856013,213,460,458
856014,310,459,462
856015,397,460,461
856016,488,460,461
856017,580,460,459
856018,666,461,460
856019,749,461,462
856020,830,461,461
856021,904,460,459
856022,975,460,461
856023,1023,461,461
856024,1023,461,461
856025,736,462,462
856026,747,460,461
856027,1023,487,466
856028,346,463,463
856029,14,462,462
856030,7,461,464
856031,5,462,463
856032,1,463,460
856033,238,462,463
856034,349,462,462
856035,452,460,462
856036,557,460,461
856037,658,460,463
856038,757,461,463
856039,845,461,462
856040,934,460,460
856041,1015,459,461
856042,1023,459,463
856043,736,461,462
856044,748,458,461
856045,755,482,479
856046,754,481,479
856047,993,461,462
856048,341,462,462
856049,15,461,462
856050,6,462,459
856051,3,462,463
856052,1,459,462
856053,251,460,460
856054,370,459,461
856055,485,460,460
856056,596,461,463
856057,708,461,462
856058,816,461,460
856059,915,461,461
856060,1014,461,461
856061,1023,460,459
856062,739,461,460
856063,753,475,474
856064,754,481,478
856065,755,480,479
856066,754,481,477
856067,846,462,461
856068,306,463,461
856069,13,461,462
856070,5,462,461
856071,3,462,458
856072,2,462,461
856073,275,462,462
856074,405,460,458
856075,528,461,457
856076,654,461,460
856077,775,460,461
856078,886,460,462
856079,994,460,462
856080,1023,462,460
856081,740,460,461
856082,755,480,478
856083,755,479,480
856084,755,482,478
856085,755,482,479
856086,753,481,477
856087,741,461,461
856088,283,462,461
856089,12,461,462
856090,5,461,461
856091,1,461,462
856092,2,461,461
856093,291,461,461
856094,431,461,461
856095,560,461,460
856096,701,461,462
856097,830,460,460
856098,950,460,459
856099,1023,460,460
856100,736,461,459
856101,753,473,473
856102,753,480,477
856103,755,481,479
856104,754,481,478
856105,754,484,479
856106,754,481,479
856107,749,461,462
856108,295,461,460
856109,10,460,462
856110,6,462,462
856111,2,462,461
856112,2,461,461
856113,315,461,460
856114,464,461,461
856115,608,462,460
856116,748,459,459
856117,878,459,458
856118,1005,459,461
856119,1023,476,466
856120,746,459,461
856121,753,481,477
856122,754,481,478
856123,755,481,476
856124,754,482,480
856125,755,482,478
856126,754,480,478
856127,840,461,462
856128,308,460,460
856129,14,462,461
856130,5,462,462
856131,2,462,460
856132,157,461,462
856133,345,460,462
856134,495,461,458
856135,645,460,460
856136,788,461,460
856137,924,460,461
856138,1023,461,460
856139,736,461,461
856140,753,481,479
856141,755,481,478
856142,754,481,477
856143,754,479,477
856144,754,480,479
856145,754,480,478
856146,754,481,477
856147,1023,461,461
856148,375,461,460
856149,14,460,461
856150,11,460,461
856151,1,461,462
856152,204,461,461
856153,379,460,461
856154,532,462,462
856155,688,460,461
856156,827,457,460
856157,963,460,460
856158,1023,458,461
856159,744,460,461
856160,754,480,476
856161,753,480,478
856162,754,480,479
856163,754,481,478
856164,755,481,478
856165,754,481,477
856166,755,480,479
856167,1023,459,461
856168,458,460,462
856169,40,461,461
856170,8,460,462
856171,3,460,462
856172,238,461,459
856173,405,460,461
856174,560,459,462
856175,714,462,460
856176,860,460,460
856177,991,460,462
856178,1023,483,467
856179,748,459,460
856180,753,482,478
856181,754,482,479
856182,753,480,479
856183,755,480,480
856184,755,483,479
856185,754,481,480
856186,755,482,480
856187,747,460,461
856188,659,461,459
856189,155,458,461
856190,10,461,462
856191,5,461,461
856192,268,460,461
856193,436,463,462
856194,584,459,462
856195,730,460,462
856196,871,459,461
856197,1000,459,460
856198,1023,481,467
856199,748,461,460
856200,754,482,477
856201,755,482,479
856202,753,481,478
856203,754,480,480
856204,753,481,480
856205,755,481,479
856206,754,483,478
856207,755,461,462
856208,763,460,462
856209,208,462,464
856210,10,461,463
856211,5,460,461
856212,297,459,461
856213,448,461,461
856214,593,461,460
856215,737,460,461
856216,868,458,463
856217,990,460,460
856218,1023,461,460
856219,746,460,461
856220,754,481,477
856221,754,481,478
856222,754,480,478
856223,754,480,478
856224,754,482,477
856225,754,481,479
856226,754,480,479
856227,753,473,463
856228,775,459,461
856229,237,463,463
856230,11,461,461
856231,5,462,463
856232,314,460,462
856233,455,462,464
856234,596,461,462
856235,730,460,462
856236,855,459,459
856237,973,460,461
856238,1023,459,460
856239,741,461,461
856240,755,481,477
856241,755,482,478
856242,754,481,479
856243,754,482,479
856244,754,480,480
856245,753,479,479
856246,753,481,479
856247,755,461,467
856248,768,461,462
856249,222,460,463
856250,9,460,464
856251,5,462,461
856252,307,462,462
856253,446,461,463
856254,583,461,462
856255,706,460,459
856256,829,460,461
856257,947,457,460
856258,1023,460,462
856259,761,461,462
856260,751,461,465
856261,754,480,479
856262,754,481,477
856263,755,481,477
856264,753,481,479
856265,754,481,480
856266,756,482,480
856267,752,459,463
856268,728,460,461
856269,203,460,460
856270,11,460,464
856271,5,459,461
856272,305,461,461
856273,440,460,461
856274,569,461,461
856275,698,459,461
856276,814,459,461
856277,925,460,460
856278,1023,459,461
856279,1023,476,466
856280,747,456,458
856281,755,481,478
856282,754,481,480
856283,754,481,479
856284,753,481,478
856285,753,480,478
856286,753,481,480
856287,753,480,477
856288,822,460,461
856289,272,460,464
856290,11,462,463
856291,102,460,464
856292,366,462,461
856293,498,459,463
856294,620,461,462
856295,741,460,463
856296,849,461,460
856297,959,461,460
856298,1023,458,460
856299,782,460,462
856300,747,459,461
856301,754,481,479
856302,753,482,477
856303,754,479,479
856304,755,482,478
856305,754,481,478
856306,754,482,480
856307,754,481,478
856308,1005,462,461
856309,344,461,463
856310,167,461,462
856311,414,462,462
856312,581,459,461
856313,698,460,461
856314,808,459,461
856315,905,459,462
856316,1002,459,460
856317,1023,456,461
856318,739,459,458
856319,752,471,474
856320,754,482,479
856321,754,481,479
856322,754,480,479
856323,754,483,479
856324,755,481,480
856325,754,481,478
856326,754,482,480
856327,754,480,477
856328,743,458,463
856329,676,460,460
856330,742,461,463
856331,941,458,462
856332,1023,459,459
856333,1023,477,466
856334,743,460,461
856335,755,481,478
856336,753,481,477
856337,755,481,479
856338,755,480,478
856339,754,481,478
856340,756,482,480
856341,753,482,476
856342,753,481,479
856343,754,480,477
856344,755,482,480
856345,754,481,480
856346,755,480,479
856347,755,480,478
856348,754,481,475
856349,972,461,463
856350,784,461,463
856351,747,460,460
856352,754,481,476
856353,754,481,479
856354,754,482,479
856355,754,482,480
856356,755,480,478
856357,754,482,477
856358,755,483,479
856359,755,481,479
856360,754,481,478
856361,755,481,481
856362,754,481,478
856363,754,480,479
856364,755,481,478
856365,754,481,480
856366,756,482,480
856367,753,480,478
856368,753,482,480
856369,1023,461,462
856370,747,460,462
856371,754,481,479
856372,755,479,479
856373,754,479,477
856374,755,482,477
856375,754,482,480
856376,753,481,479
856377,754,480,478
856378,754,481,478
856379,755,481,479
856380,754,481,479
856381,754,479,478
856382,753,481,481
856383,754,481,478
856384,755,480,478
856385,754,482,478
856386,755,481,477
856387,754,481,479
856388,754,481,479
856389,1023,461,462
856390,747,461,461
856391,753,475,475
856392,754,481,478
856393,755,481,478
856394,754,481,478
856395,755,483,478
856396,755,481,479
856397,755,479,477
856398,754,482,479
856399,755,482,478
856400,754,481,477
856401,754,482,478
856402,754,480,479
856403,753,480,479
856404,753,482,478
856405,755,480,480
856406,754,481,479
856407,754,480,479
856408,754,481,480
856409,1012,461,463
856410,799,463,461
856411,742,461,460
856412,748,457,459
856413,751,464,467
856414,754,481,477
856415,754,483,478
856416,755,481,480
856417,754,480,479
856418,754,482,478
856419,754,481,480
856420,754,481,478
856421,754,481,478
856422,754,482,478
856423,755,482,480
856424,755,481,479
856425,755,481,479
856426,754,481,478
856427,755,481,478
856428,755,461,471
856429,950,459,462
856430,1023,460,462
856431,1023,478,465
856432,745,459,461
856433,739,461,462
856434,744,461,460
856435,749,457,462
856436,754,475,476
856437,755,483,480
856438,755,482,481
856439,754,482,480
856440,754,481,477
856441,754,482,479
856442,753,481,478
856443,753,480,478
856444,755,481,481
856445,755,482,477
856446,755,482,477
856447,755,481,480
856448,748,461,463
856449,954,462,461
856450,1023,460,460
856451,1023,461,461
856452,964,462,464
856453,739,458,462
856454,738,458,461
856455,743,458,459
856456,747,459,461
856457,750,462,462
856458,753,481,479
856459,755,483,479
856460,756,482,479
856461,754,482,480
856462,754,480,477
856463,755,482,479
856464,756,482,479
856465,755,480,480
856466,754,481,477
856467,755,481,479
856468,745,460,462
856469,961,461,460
856470,1023,459,461
856471,1023,461,459
856472,1023,484,465
856473,881,461,463
856474,736,460,459
856475,739,460,460
856476,744,460,460
856477,748,459,460
856478,751,463,461
856479,753,480,478
856480,754,481,479
856481,754,482,479
856482,755,480,478
856483,755,480,479
856484,754,481,479
856485,754,480,478
856486,754,482,479
856487,755,482,478
856488,745,459,461
856489,955,460,461
856490,1023,460,461
856491,1023,486,464
856492,945,464,464
856493,740,460,462
856494,736,461,461
856495,740,460,461
856496,743,460,461
856497,745,459,461
856498,747,456,458
856499,749,461,461
856500,749,460,457
856501,752,468,470
856502,754,481,477
856503,754,482,479
856504,755,482,478
856505,755,481,479
856506,755,482,479
856507,755,480,479
856508,751,458,462
856509,1023,459,462
856510,1023,479,467
856511,956,465,464
856512,911,461,463
856513,799,462,463
856514,743,461,461
856515,736,462,460
856516,740,458,459
856517,743,460,460
856518,748,459,460
856519,750,461,461
856520,752,468,469
856521,754,479,476
856522,754,480,479
856523,754,481,476
856524,755,482,481
856525,753,480,480
856526,754,481,479
856527,753,478,476
856528,748,460,462
856529,1023,458,462
856530,737,460,461
856531,736,462,461
856532,737,461,459
856533,740,461,461
856534,742,458,460
856535,742,459,461
856536,747,460,461
856537,747,460,461
856538,748,459,462
856539,748,460,460
856540,751,460,458
856541,751,463,462
856542,753,469,468
856543,753,476,473
1741019440899,NEW REP,,
856544,753,478,476
856545,753,482,480
856546,754,481,479
856547,753,479,477
856548,754,473,462
856549,1023,462,463
856550,737,461,461
856551,740,461,459
856552,738,460,460
856553,738,460,462
856554,738,460,461
856555,739,461,459
856556,741,462,462
856557,743,460,461
856558,746,458,462
856559,746,460,461
856560,748,457,461
856561,749,459,460
856562,751,461,463
856563,751,465,465
856564,752,464,466
856565,752,468,466
856566,751,465,463
856567,752,461,465
856568,738,461,462
856569,1023,460,462
856570,1023,474,464
856571,1023,474,466
856572,1023,473,466
856573,1023,478,467
856574,1023,479,465
856575,978,468,462
856576,825,460,462
856577,740,462,462
856578,736,460,462
856579,737,460,462
856580,738,460,461
856581,740,460,462
856582,740,460,461
856583,738,458,460
856584,739,458,462
856585,738,461,460
856586,740,461,462
856587,739,459,461
856588,1023,487,467
856589,968,463,464
856590,1023,462,461
856591,1023,461,462
856592,1023,460,463
856593,1023,461,466
856594,1023,462,463
856595,1023,462,460
856596,1023,462,462
856597,1023,460,460
856598,1023,462,462
856599,1023,460,460
856600,1023,461,463
856601,1023,461,459
856602,1023,462,463
856603,1023,461,460
856604,1023,461,463
856605,1023,462,463
856606,1023,460,463
856607,1023,462,463
856608,968,461,462
856609,821,459,461
856610,905,459,462
856611,903,461,462
856612,906,463,462
856613,906,461,461
856614,912,462,463
856615,920,461,460
856616,931,461,462
856617,941,461,462
856618,949,460,459
856619,960,461,462
856620,964,460,463
856621,969,462,462
856622,971,462,463
856623,972,459,462
856624,969,462,462
856625,965,462,461
856626,960,458,463
856627,956,462,462
856628,799,462,460
856629,653,461,463
856630,758,459,461
856631,767,462,463
856632,775,460,462
856633,783,460,462
856634,791,461,464
856635,801,459,462
856636,808,462,463
856637,813,461,461
856638,818,459,461
856639,819,461,463
856640,822,462,461
856641,827,460,458
856642,839,461,463
856643,842,461,463
856644,852,461,461
856645,858,460,462
856646,861,459,462
856647,861,462,463
856648,621,461,462
856649,463,462,460
856650,584,460,462
856651,588,463,463
856652,591,461,463
856653,598,461,463
856654,603,461,463
856655,611,461,463
856656,622,460,465
856657,639,461,464
856658,653,461,461
856659,665,461,462
856660,676,457,462
856661,687,462,462
856662,692,461,460
856663,694,462,461
856664,695,462,462
856665,689,461,463
856666,691,460,462
856667,688,459,462
856668,392,462,463
856669,239,461,463
856670,374,462,463
856671,389,461,462
856672,407,463,462
856673,420,460,461
856674,433,462,459
856675,449,460,462
856676,457,458,462
856677,469,463,462
856678,484,461,461
856679,492,460,460
856680,504,462,460
856681,517,462,463
856682,526,462,462
856683,540,460,461
856684,551,460,462
856685,560,459,460
856686,566,461,461
856687,565,460,462
856688,156,461,461
856689,8,460,462
856690,137,460,462
856691,157,461,462
856692,173,462,463
856693,190,461,462
856694,205,462,461
856695,221,460,462
856696,240,459,462
856697,257,458,461
856698,276,459,462
856699,292,460,463
856700,310,462,461
856701,328,460,463
856702,340,460,462
856703,356,461,460
856704,374,461,461
856705,387,461,461
856706,398,460,462
856707,406,460,460
856708,10,458,462
856709,3,460,460
856710,62,461,462
856711,94,461,459
856712,113,460,461
856713,133,463,461
856714,155,459,462
856715,179,459,462
856716,199,461,461
856717,220,461,463
856718,243,460,462
856719,263,460,461
856720,283,460,462
856721,300,460,463
856722,317,461,460
856723,336,460,461
856724,349,459,462
856725,359,459,463
856726,371,461,459
856727,383,461,461
856728,7,459,461
856729,1,461,461
856730,64,460,462
856731,97,457,462
856732,124,457,461
856733,147,460,461
856734,174,461,461
856735,197,462,462
856736,218,462,461
856737,236,461,461
856738,258,460,459
856739,281,461,463
856740,304,460,455
856741,324,462,461
856742,343,460,460
856743,363,460,462
856744,383,462,460
856745,401,459,462
856746,420,458,462
856747,433,462,461
856748,9,462,461
856749,1,461,461
856750,70,461,458
856751,105,461,461
856752,130,462,458
856753,155,460,462
856754,183,458,462
856755,210,460,462
856756,238,460,462
856757,266,460,461
856758,291,459,461
856759,313,458,461
856760,335,459,461
856761,358,460,460
856762,379,460,461
856763,402,460,461
856764,422,460,459
856765,442,462,462
856766,458,460,463
856767,476,461,461
856768,8,460,463
856769,1,460,461
856770,88,460,460
856771,125,460,462
856772,156,460,463
856773,190,460,463
856774,221,458,463
856775,250,460,461
856776,279,460,462
856777,308,460,462
856778,339,459,461
856779,364,464,461
856780,390,461,461
856781,414,460,463
856782,435,460,461
856783,455,460,463
856784,472,460,460
856785,486,461,462
856786,500,460,462
856787,509,460,461
856788,10,461,462
856789,4,461,461
856790,103,460,461
856791,142,459,460
856792,177,458,462
856793,212,462,461
856794,246,461,461
856795,280,462,463
856796,313,459,462
856797,345,460,462
856798,375,459,462
856799,406,460,462
856800,436,461,462
856801,460,461,463
856802,486,456,461
856803,509,461,461
856804,533,460,459
856805,560,460,461
856806,576,460,461
856807,597,460,460
856808,66,460,463
856809,5,460,462
856810,144,462,461
856811,177,460,461
856812,207,458,463
856813,241,461,461
856814,273,461,459
856815,302,459,461
856816,335,461,463
856817,368,461,461
856818,401,461,463
856819,429,462,461
856820,459,459,461
856821,487,461,461
856822,519,460,462
856823,544,461,461
856824,569,460,459
856825,592,461,461
856826,611,461,458
856827,629,459,461
856828,78,461,461
856829,5,460,463
856830,151,462,460
856831,187,461,460
856832,221,460,459
856833,253,462,461
856834,283,459,462
856835,319,460,462
856836,349,458,461
856837,379,459,461
856838,411,462,462
856839,441,461,463
856840,474,461,461
856841,503,459,462
856842,531,461,462
856843,556,461,460
856844,584,460,462
856845,606,461,460
856846,631,461,461
856847,653,459,461
856848,57,460,462
856849,5,460,461
856850,162,461,461
856851,199,460,462
856852,232,460,460
856853,266,460,462
856854,299,460,462
856855,335,462,461
856856,367,461,462
856857,401,460,462
856858,433,461,461
856859,468,461,462
856860,499,459,461
856861,531,460,461
856862,554,459,460
856863,584,459,462
856864,611,460,462
856865,635,460,462
856866,659,459,462
856867,643,463,463
856868,13,461,461
856869,8,459,463
856870,148,461,461
856871,191,460,462
856872,237,461,461
856873,278,460,462
856874,320,460,462
856875,358,462,461
856876,397,462,461
856877,434,458,462
856878,470,458,461
856879,506,461,462
856880,544,461,459
856881,580,461,460
856882,613,461,462
856883,645,460,463
856884,667,460,461
856885,688,459,461
856886,700,460,459
856887,576,460,462
856888,12,461,459
856889,4,461,462
856890,63,462,461
856891,141,461,460
856892,187,461,462
856893,232,462,462
856894,284,461,461
856895,331,460,461
856896,381,457,462
856897,428,461,460
856898,474,458,461
856899,516,459,462
856900,557,460,462
856901,594,460,462
856902,626,462,461
856903,658,460,460
856904,685,460,460
856905,720,460,462
856906,745,460,462
856907,588,459,461
856908,11,460,459
856909,4,461,461
856910,55,460,462
856911,157,461,462
856912,208,460,461
856913,251,461,460
856914,292,462,461
856915,336,460,462
856916,380,461,460
856917,423,460,462
856918,474,458,461
856919,516,461,462
856920,565,462,460
856921,608,460,462
856922,645,457,462
856923,681,459,463
856924,712,461,461
856925,743,460,461
856926,769,460,460
856927,578,459,461
856928,11,459,461
856929,5,461,462
856930,106,461,461
856931,181,461,463
856932,238,461,461
856933,291,461,461
856934,345,461,462
856935,395,458,462
856936,441,458,462
856937,483,459,461
856938,524,460,461
856939,565,460,464
856940,602,460,461
856941,638,457,462
856942,675,459,461
856943,709,459,459
856944,744,460,460
856945,779,460,463
856946,815,461,460
856947,687,457,461
856948,15,462,460
856949,6,461,461
856950,166,461,462
856951,219,459,461
856952,267,460,461
856953,311,461,464
856954,356,459,461
856955,403,461,462
856956,450,461,462
856957,499,460,460
856958,552,461,463
856959,606,459,462
856960,654,460,462
856961,702,457,463
856962,743,457,461
856963,778,460,461
856964,807,461,461
856965,840,462,461
856966,858,461,462
856967,772,460,462
856968,116,459,463
856969,60,462,461
856970,242,462,462
856971,295,461,463
856972,345,459,462
856973,395,462,459
856974,442,461,463
856975,492,460,461
856976,540,459,461
856977,584,460,462
856978,625,459,462
856979,657,460,462
856980,690,461,461
856981,722,458,461
856982,752,460,460
856983,778,461,463
856984,803,461,462
856985,834,460,466
856986,862,460,462
856987,850,461,460
856988,303,460,461
856989,347,461,462
856990,475,461,462
856991,534,460,461
856992,584,459,460
856993,629,459,461
856994,671,461,463
856995,704,458,461
856996,732,461,462
856997,760,461,461
856998,784,461,460
856999,815,460,461
857000,847,461,462
857001,883,460,461
857002,918,459,460
857003,947,461,461
857004,985,460,460
857005,1012,461,462
857006,1023,460,461
857007,1023,461,460
857008,561,460,463
857009,669,460,460
857010,728,460,462
857011,748,460,460
857012,770,460,460
