Time (ms),Bicep,Shoulder,Tricep
13657,457,459,461
13658,455,460,462
13659,457,462,463
13660,456,459,460
13661,458,460,463
13662,457,462,462
13663,459,460,463
13664,460,461,462
13665,459,461,461
13666,461,458,461
13667,460,461,462
13668,460,459,462
13669,460,460,461
13670,460,461,462
13671,457,461,462
13672,459,460,461
13673,456,460,462
13674,457,460,463
13675,454,456,462
13676,454,461,461
13677,454,462,461
13678,452,461,462
13679,456,461,461
13680,455,461,462
13681,459,460,463
13682,459,460,460
13683,461,462,460
13684,464,461,463
13685,463,462,462
13686,465,461,462
13687,466,461,462
13688,467,460,462
13689,467,459,463
13690,464,463,462
13691,464,461,463
13692,461,461,462
13693,462,461,462
13694,459,462,462
13695,458,460,462
13696,456,461,459
13697,457,461,462
13698,458,462,461
13699,458,462,462
13700,458,462,461
13701,457,458,462
13702,460,462,460
13703,457,462,461
13704,460,461,462
13705,462,460,464
13706,461,459,460
13707,459,461,460
13708,462,461,460
13709,458,460,461
13710,461,461,462
13711,460,461,463
13712,459,461,461
13713,460,459,460
13714,460,458,461
13715,464,461,462
13716,460,463,462
13717,462,459,461
13718,462,460,462
13719,463,462,462
13720,463,462,458
13721,466,462,461
13722,469,459,459
13723,469,461,459
13724,468,461,461
13725,471,461,462
13726,467,461,463
13727,469,462,461
13728,468,462,458
13729,469,461,461
13730,467,461,462
13731,469,459,460
13732,466,462,461
13733,465,461,462
13734,465,460,460
13735,468,462,461
13736,468,457,460
13737,466,461,462
13738,466,460,462
13739,463,460,463
13740,464,460,462
13741,461,460,462
13742,462,461,461
13743,462,458,460
13744,462,460,462
13745,462,460,462
13746,460,460,459
13747,460,462,463
13748,465,462,461
13749,463,459,460
13750,466,460,462
13751,465,460,461
13752,459,461,463
13753,460,459,461
13754,457,460,460
13755,457,461,462
13756,454,460,460
13757,457,458,459
13758,459,459,461
13759,461,460,461
13760,462,459,463
13761,465,461,461
13762,469,461,461
13763,469,461,461
13764,471,459,461
13765,469,460,462
13766,470,457,461
13767,471,459,461
13768,470,461,460
13769,469,458,462
13770,469,460,462
13771,474,460,462
13772,475,460,461
13773,475,460,460
13774,475,460,461
13775,475,461,461
13776,478,459,461
13777,480,461,460
13778,482,459,461
13779,487,460,463
13780,490,461,460
13781,491,462,459
13782,492,459,461
13783,489,460,460
13784,488,460,462
13785,490,460,461
13786,488,457,462
13787,486,459,463
13788,482,460,462
13789,486,458,462
13790,488,460,462
13791,485,457,460
13792,482,461,460
13793,478,460,462
13794,477,459,461
13795,475,461,458
13796,475,461,462
13797,474,460,462
13798,474,460,462
13799,471,461,461
13800,472,458,460
13801,470,461,461
13802,469,460,463
13803,467,460,460
13804,467,460,461
13805,466,461,462
13806,464,461,463
13807,465,459,461
13808,461,461,462
13809,463,461,461
13810,465,460,461
13811,464,460,463
13812,468,458,461
13813,471,459,462
13814,474,459,461
13815,477,460,460
13816,485,460,462
13817,491,462,462
13818,499,460,461
13819,499,459,461
13820,501,460,461
13821,502,461,461
13822,499,462,461
13823,500,459,462
13824,497,461,461
13825,492,460,461
13826,481,462,459
13827,474,461,464
13828,465,459,461
13829,460,460,460
13830,450,460,460
13831,448,460,462
13832,446,460,461
13833,444,459,464
13834,441,461,459
13835,442,459,463
13836,440,462,461
13837,442,460,460
13838,451,459,462
13839,456,461,462
13840,463,459,462
13841,467,457,460
13842,474,461,461
13843,475,460,461
13844,482,461,462
13845,486,460,460
13846,486,463,460
13847,486,460,462
13848,487,461,460
13849,482,461,460
13850,481,458,461
13851,473,460,459
13852,473,462,461
13853,471,461,462
13854,471,460,462
13855,471,461,462
13856,470,459,461
13857,466,461,463
13858,464,459,462
13859,465,460,461
13860,464,459,460
13861,461,461,462
13862,461,461,462
13863,457,461,461
13864,453,460,459
13865,451,461,462
13866,450,459,462
13867,447,460,460
13868,445,460,461
13869,446,461,463
13870,443,459,462
13871,441,460,462
13872,436,461,461
13873,436,459,460
13874,439,459,461
13875,439,462,461
13876,441,461,464
13877,442,460,462
13878,442,460,462
13879,441,462,461
13880,442,460,461
13881,444,459,461
13882,446,458,462
13883,448,462,462
13884,448,462,461
13885,448,459,460
13886,444,460,462
13887,442,460,461
13888,435,459,463
13889,434,461,461
13890,431,460,463
13891,434,460,462
13892,431,459,459
13893,438,457,462
13894,443,461,459
13895,450,460,461
13896,455,462,460
13897,455,460,462
13898,457,458,461
13899,457,459,461
13900,456,461,463
13901,452,459,460
13902,451,461,462
13903,455,461,462
13904,454,459,459
13905,452,460,462
13906,448,457,461
13907,448,462,460
13908,444,460,461
13909,440,461,461
13910,438,460,461
13911,435,459,462
13912,432,460,463
13913,428,462,460
13914,421,460,462
13915,423,461,459
13916,418,461,461
13917,427,461,463
13918,426,460,464
13919,432,460,463
13920,435,460,462
13921,438,462,458
13922,441,458,461
13923,445,459,460
13924,451,462,461
13925,455,461,463
13926,460,461,462
13927,460,460,462
13928,465,460,461
13929,467,460,461
13930,467,460,461
13931,464,461,459
13932,462,459,461
13933,455,459,462
13934,450,460,459
13935,445,460,460
13936,443,460,461
13937,438,462,462
13938,436,461,460
13939,438,459,460
13940,440,461,464
13941,441,461,460
13942,441,461,461
13943,442,459,461
13944,443,462,461
13945,444,461,461
13946,445,460,461
13947,444,459,461
13948,444,460,462
13949,448,461,462
13950,448,462,462
13951,448,460,461
13952,450,461,462
13953,456,461,463
13954,459,460,462
13955,460,460,461
13956,458,462,459
13957,451,461,462
13958,448,460,462
13959,445,460,461
13960,437,461,461
13961,439,461,461
13962,436,460,462
13963,438,460,459
13964,444,458,461
13965,444,461,459
13966,450,459,463
13967,454,459,461
13968,458,460,461
13969,457,460,462
13970,459,461,461
13971,459,460,461
13972,455,460,459
13973,452,459,461
13974,450,462,461
13975,446,461,461
13976,445,459,461
13977,444,459,460
13978,446,459,462
13979,450,461,461
13980,455,460,463
13981,458,461,461
13982,460,458,462
13983,461,461,462
13984,458,459,463
13985,455,461,462
13986,452,460,459
13987,451,462,459
13988,454,461,460
13989,453,460,461
13990,452,461,460
13991,454,462,462
13992,453,460,461
13993,456,461,461
13994,453,461,461
13995,453,461,462
13996,451,457,461
13997,448,459,462
13998,449,461,461
13999,448,461,461
14000,451,460,462
14001,451,460,461
14002,455,460,461
14003,453,459,462
14004,451,461,461
14005,447,459,460
14006,449,461,462
14007,446,461,462
14008,445,459,462
14009,444,460,461
14010,445,460,463
14011,445,460,461
14012,445,460,463
14013,451,460,461
14014,455,461,461
14015,459,461,461
14016,460,460,461
14017,460,461,461
14018,461,461,462
14019,459,460,462
14020,458,460,462
14021,453,459,462
14022,449,459,461
14023,447,461,464
14024,444,461,462
14025,443,459,461
14026,440,462,462
14027,446,458,462
14028,448,461,460
14029,446,461,462
14030,446,460,461
14031,446,460,461
14032,444,459,460
14033,444,458,461
14034,440,460,461
14035,441,458,461
14036,442,459,462
14037,443,459,459
14038,443,459,460
14039,445,460,461
14040,450,459,460
14041,453,459,461
14042,453,462,460
14043,457,458,460
14044,452,460,461
14045,449,460,462
14046,442,459,462
14047,439,458,461
14048,437,460,461
14049,430,460,458
14050,433,461,460
14051,434,459,461
14052,433,460,462
14053,434,460,461
14054,439,458,460
14055,442,460,459
14056,444,461,463
14057,448,460,461
14058,447,460,462
14059,448,459,461
14060,445,460,461
14061,438,462,462
14062,436,460,462
14063,435,459,461
14064,434,462,457
14065,441,458,462
14066,444,459,460
14067,447,460,463
14068,444,460,461
14069,439,458,461
14070,431,456,461
14071,423,460,461
14072,421,461,459
14073,422,462,461
14074,425,458,462
14075,427,462,463
14076,431,462,462
14077,436,462,461
14078,438,457,462
14079,441,462,461
14080,443,459,463
14081,441,460,461
14082,446,460,460
14083,445,460,460
14084,445,459,462
14085,447,460,462
14086,446,460,462
14087,442,460,459
14088,441,457,462
14089,441,461,460
14090,443,459,462
14091,440,460,463
14092,437,459,462
14093,430,459,459
14094,421,457,459
14095,418,461,460
14096,409,461,460
14097,409,459,460
14098,411,461,462
14099,414,461,462
14100,420,461,461
14101,423,459,461
14102,425,460,462
14103,428,462,461
14104,429,459,462
14105,431,458,460
14106,433,461,462
14107,437,458,464
14108,435,460,461
14109,438,459,462
14110,437,462,462
14111,435,461,462
14112,435,460,461
14113,431,459,461
14114,433,461,462
14115,435,460,461
14116,439,460,461
14117,441,461,461
14118,441,460,463
14119,437,460,462
14120,436,462,460
14121,429,460,462
14122,429,461,462
14123,425,460,461
14124,425,460,461
14125,423,459,459
14126,420,460,461
14127,420,458,461
14128,415,460,459
14129,415,459,461
14130,416,460,461
14131,416,461,462
14132,420,460,462
14133,417,460,460
14134,419,460,461
14135,421,461,461
14136,425,460,463
14137,428,460,462
14138,429,460,463
14139,427,460,462
14140,426,461,461
14141,426,460,461
14142,425,461,460
14143,426,460,462
14144,425,460,461
14145,424,461,461
14146,425,460,463
14147,422,459,462
14148,423,460,461
14149,426,459,462
14150,426,460,459
14151,427,462,462
14152,427,461,461
14153,425,460,458
14154,420,461,462
14155,418,461,461
14156,414,462,461
14157,414,461,462
14158,411,459,461
14159,412,460,463
14160,417,457,462
14161,423,460,462
14162,430,460,461
14163,432,461,462
14164,437,461,461
14165,442,461,462
14166,444,461,462
14167,445,458,461
14168,445,460,461
14169,443,461,461
14170,439,460,462
14171,433,461,462
14172,431,460,463
14173,427,459,461
14174,428,461,462
14175,425,461,460
14176,425,461,462
14177,422,461,460
14178,419,461,463
14179,419,461,459
14180,416,462,459
14181,418,460,462
14182,422,460,462
14183,421,462,459
14184,417,461,462
14185,420,461,462
14186,421,459,462
14187,426,459,461
14188,428,461,460
14189,430,461,462
14190,433,460,462
14191,432,461,461
14192,434,462,461
14193,433,460,462
14194,432,460,462
14195,430,461,461
14196,433,461,461
14197,433,460,462
14198,432,460,460
14199,435,462,459
14200,433,460,458
14201,436,461,461
14202,434,460,459
14203,434,461,461
14204,431,460,459
14205,428,460,460
14206,422,461,461
14207,417,459,461
14208,411,460,461
14209,405,461,461
14210,400,462,461
14211,396,461,459
14212,399,461,461
14213,401,458,462
14214,405,461,461
14215,411,460,460
14216,419,459,461
14217,428,460,461
14218,432,460,460
14219,433,458,461
14220,435,461,461
14221,432,459,462
14222,430,460,461
14223,435,461,461
14224,436,462,461
14225,438,462,462
14226,439,459,461
14227,439,461,459
14228,444,460,461
14229,445,461,462
14230,446,459,462
14231,444,461,460
14232,446,460,460
14233,443,460,463
14234,441,459,462
14235,441,462,460
14236,436,460,461
14237,430,458,462
14238,425,457,461
14239,418,461,461
14240,414,462,462
14241,413,461,462
14242,409,459,462
14243,409,458,459
14244,414,460,462
14245,424,458,461
14246,430,460,462
14247,434,460,462
14248,436,461,460
14249,439,458,462
14250,441,461,460
14251,443,461,460
14252,443,462,462
14253,446,461,462
14254,446,460,465
14255,447,460,461
14256,443,460,462
14257,440,459,461
14258,439,460,461
14259,435,460,463
14260,435,461,462
14261,430,460,461
14262,428,459,462
14263,425,460,461
14264,425,460,461
14265,428,459,461
14266,429,459,462
14267,433,461,462
14268,435,459,461
14269,436,459,460
14270,439,459,462
14271,439,462,460
14272,438,462,462
14273,436,460,461
14274,432,460,461
14275,425,460,462
14276,416,460,462
14277,414,460,460
14278,412,459,462
14279,411,460,462
14280,416,462,459
14281,416,461,462
14282,420,461,461
14283,422,460,459
14284,421,461,462
14285,420,460,461
14286,410,459,462
14287,402,457,461
14288,403,461,459
14289,404,462,461
14290,414,460,458
14291,420,460,460
14292,423,460,461
14293,423,460,461
14294,422,458,461
14295,419,460,459
14296,419,459,461
14297,423,458,462
14298,421,460,461
14299,421,459,463
14300,426,460,460
14301,428,460,462
14302,433,458,461
14303,440,460,461
14304,449,462,462
14305,452,460,460
14306,454,459,461
14307,453,459,461
14308,446,461,463
14309,439,461,461
14310,429,459,459
14311,424,462,462
14312,417,460,462
14313,410,460,461
14314,405,459,463
14315,399,459,462
14316,394,459,462
14317,399,461,462
14318,406,461,462
14319,415,459,462
14320,422,460,460
14321,424,461,461
14322,425,461,461
14323,424,459,461
14324,423,461,462
14325,420,461,463
14326,423,460,461
14327,420,460,461
14328,417,462,460
14329,416,461,464
14330,416,460,462
14331,413,460,459
14332,414,462,462
14333,414,461,460
14334,418,461,463
14335,424,460,462
14336,427,460,461
14337,426,460,461
14338,418,461,460
14339,412,461,461
14340,405,460,461
14341,401,461,460
14342,402,459,462
14343,410,460,461
14344,415,461,461
14345,419,462,461
14346,423,461,461
14347,426,460,458
14348,438,461,461
14349,439,460,461
14350,454,461,461
14351,459,461,458
14352,464,460,459
14353,463,460,460
14354,461,460,459
14355,459,461,461
14356,452,461,462
14357,450,460,459
14358,448,460,461
14359,442,460,461
14360,436,460,459
14361,430,460,462
14362,427,461,459
14363,427,460,461
14364,427,461,462
14365,426,458,461
14366,420,460,462
14367,421,459,460
14368,426,459,461
14369,434,459,459
14370,440,459,462
14371,444,459,460
14372,448,460,460
14373,448,460,461
14374,452,459,461
14375,454,459,462
14376,453,459,460
14377,450,458,462
14378,450,457,462
14379,447,460,460
14380,444,462,462
14381,443,462,462
14382,441,460,461
14383,439,460,459
14384,438,459,460
14385,437,461,463
14386,437,460,461
14387,438,461,459
14388,437,461,460
14389,434,460,459
14390,432,459,459
14391,432,460,461
14392,428,459,462
14393,425,461,460
14394,421,458,461
14395,420,460,461
14396,424,460,462
14397,432,460,463
14398,439,461,461
14399,445,458,461
14400,453,461,461
14401,457,459,463
14402,462,460,462
14403,463,460,460
14404,463,457,461
14405,461,459,461
14406,457,460,462
14407,452,459,460
14408,451,461,462
14409,452,461,461
14410,452,460,461
14411,452,460,461
14412,449,459,461
14413,442,461,459
14414,435,460,461
14415,430,460,460
14416,424,461,460
14417,420,459,459
14418,422,461,461
14419,420,460,461
14420,414,459,462
14421,417,462,462
14422,421,460,462
14423,425,461,459
14424,430,457,462
14425,433,460,462
14426,432,461,462
14427,434,459,461
14428,436,458,462
14429,442,458,460
14430,448,455,462
14431,451,460,460
14432,450,462,459
14433,447,461,462
14434,446,461,461
14435,445,460,460
14436,444,459,461
14437,442,458,462
14438,438,460,462
14439,435,461,460
14440,434,461,459
14441,437,460,461
14442,438,460,460
14443,442,460,462
14444,443,460,459
14445,443,460,462
14446,443,461,462
14447,440,460,461
14448,435,460,462
14449,423,459,463
14450,410,461,461
14451,406,459,461
14452,403,460,462
14453,408,459,459
14454,418,461,460
14455,429,460,462
14456,433,460,463
14457,439,461,462
14458,443,460,461
14459,446,461,463
14460,450,462,462
14461,449,460,462
14462,451,461,462
14463,453,462,461
14464,454,459,461
14465,453,460,460
14466,453,461,462
14467,455,460,461
14468,458,461,462
14469,454,459,459
14470,450,460,462
14471,442,460,462
14472,433,460,462
14473,428,459,460
14474,424,459,460
14475,424,459,462
14476,426,459,462
14477,428,459,463
14478,431,461,459
14479,434,462,460
14480,437,456,460
14481,441,460,461
14482,445,459,461
14483,446,461,464
14484,451,459,461
14485,453,461,462
14486,460,458,462
14487,468,460,462
14488,474,459,461
14489,478,460,461
14490,482,460,461
14491,484,463,461
14492,480,459,463
14493,479,458,460
14494,476,460,462
14495,472,460,462
14496,465,458,462
14497,457,459,461
14498,449,459,463
14499,445,458,461
14500,440,461,462
14501,441,460,462
14502,443,459,462
14503,444,460,461
14504,445,457,462
14505,450,460,462
14506,453,459,461
14507,455,459,462
14508,454,460,460
14509,454,461,461
14510,452,460,462
14511,452,458,462
14512,448,459,462
14513,446,462,462
14514,445,459,460
14515,442,458,460
14516,440,461,461
14517,440,460,462
14518,437,458,462
14519,434,459,462
14520,430,457,461
14521,430,461,464
14522,433,460,459
14523,437,460,462
14524,444,461,463
14525,449,459,464
14526,450,462,462
14527,455,459,462
14528,459,460,463
14529,459,460,462
14530,457,457,461
14531,459,459,462
14532,459,458,461
14533,459,460,462
14534,460,460,461
14535,458,461,463
14536,456,461,461
14537,452,459,462
14538,455,460,460
14539,455,459,462
14540,454,459,461
14541,452,462,460
14542,447,460,461
14543,442,458,461
14544,436,461,461
14545,432,457,461
14546,428,458,462
14547,420,459,462
14548,425,462,461
14549,426,460,463
14550,430,460,460
14551,435,461,463
14552,441,459,462
14553,443,460,462
14554,443,459,462
14555,443,462,462
14556,441,462,460
14557,440,461,461
14558,439,461,460
14559,437,459,461
14560,442,459,461
14561,448,461,460
14562,452,461,460
14563,458,461,462
14564,467,460,462
14565,469,461,462
14566,472,460,460
14567,474,460,463
14568,472,461,458
14569,471,460,461
14570,469,460,461
14571,468,459,462
14572,467,460,462
14573,462,461,462
14574,460,460,464
14575,458,461,462
14576,455,459,463
14577,454,459,462
14578,451,461,461
14579,454,460,461
14580,457,460,459
14581,459,460,462
14582,461,460,461
14583,463,460,462
14584,465,462,459
14585,465,460,461
14586,471,457,462
14587,474,459,462
14588,476,460,462
14589,474,459,462
14590,473,461,459
14591,474,461,463
14592,471,460,460
14593,471,459,463
14594,467,461,461
14595,464,461,461
14596,462,459,462
14597,461,459,462
14598,457,461,460
14599,461,460,461
14600,463,460,461
14601,466,460,462
14602,470,461,461
14603,472,460,461
14604,473,460,462
14605,475,462,461
14606,477,461,462
14607,480,458,462
14608,479,460,462
14609,478,459,460
14610,476,460,461
14611,476,460,460
14612,475,461,460
14613,473,461,461
14614,476,460,461
14615,472,458,462
14616,469,459,459
14617,468,459,461
14618,465,459,460
14619,464,460,459
14620,466,461,462
14621,466,460,461
14622,464,459,461
14623,463,460,461
14624,465,459,462
14625,462,461,460
14626,460,460,461
14627,461,460,462
14628,458,460,460
14629,458,460,460
14630,456,460,460
14631,454,457,462
14632,455,459,461
14633,456,458,462
14634,459,460,460
14635,462,460,460
14636,462,461,460
14637,466,459,460
14638,466,457,461
14639,469,458,461
14640,471,461,462
14641,473,460,461
14642,475,460,463
14643,480,460,461
14644,482,459,461
14645,485,460,461
14646,490,459,461
14647,491,459,460
14648,491,460,461
14649,490,460,461
14650,490,460,463
14651,488,459,461
14652,484,459,460
14653,479,460,459
14654,473,460,462
14655,468,460,462
14656,467,460,461
14657,463,459,461
14658,464,459,461
14659,464,460,460
14660,466,460,463
14661,470,459,460
14662,472,460,458
14663,475,460,462
14664,478,460,461
14665,479,461,461
14666,482,461,461
14667,485,459,461
14668,487,458,462
14669,487,459,460
14670,486,460,463
14671,485,460,461
14672,482,459,462
14673,481,459,461
14674,479,461,462
14675,476,459,461
14676,475,460,463
14677,475,460,462
14678,476,459,462
14679,476,459,461
14680,478,460,462
14681,479,461,459
14682,482,460,462
14683,485,461,462
14684,487,461,463
14685,486,460,460
14686,488,460,463
14687,486,457,461
14688,486,460,462
14689,482,460,459
14690,484,457,460
14691,480,460,460
14692,480,460,461
14693,481,460,461
14694,479,459,461
14695,477,460,461
14696,474,461,460
14697,468,461,462
14698,468,459,460
14699,465,460,462
14700,468,459,461
14701,469,459,463
14702,472,462,460
14703,474,460,461
14704,477,458,460
14705,478,457,460
14706,481,460,461
14707,478,461,459
14708,480,459,461
14709,479,461,460
14710,479,458,460
14711,478,459,463
14712,479,462,460
14713,481,460,461
14714,482,461,461
14715,483,456,459
14716,484,461,460
14717,483,460,460
14718,482,458,461
14719,483,460,461
14720,478,461,461
14721,478,461,462
14722,478,459,460
14723,480,458,460
14724,481,458,458
14725,483,460,460
14726,488,460,462
14727,489,460,461
14728,492,460,460
14729,497,458,460
14730,497,460,462
14731,500,461,461
14732,501,461,461
14733,500,460,461
14734,497,460,461
14735,493,460,460
14736,489,460,460
14737,487,460,460
14738,487,457,462
14739,486,460,462
14740,485,460,461
14741,488,460,462
14742,492,458,461
14743,498,461,461
14744,504,460,462
14745,508,460,458
14746,513,461,460
14747,517,461,460
14748,521,459,460
14749,520,461,461
14750,519,458,460
14751,517,460,460
14752,513,460,460
14753,511,459,462
14754,510,460,457
14755,512,461,462
14756,516,460,461
14757,514,461,461
14758,513,460,462
14759,514,461,461
14760,516,458,460
14761,517,457,460
14762,522,461,461
14763,526,459,462
14764,527,459,461
14765,527,459,460
14766,526,459,462
14767,526,459,461
14768,525,458,461
14769,525,459,462
14770,522,460,458
14771,521,461,458
14772,523,459,461
14773,524,460,460
14774,524,460,461
14775,525,460,460
14776,523,460,462
14777,525,459,461
14778,525,457,461
14779,527,459,458
14780,530,458,460
14781,535,459,463
14782,537,459,461
14783,541,458,462
14784,542,460,462
14785,544,458,462
14786,545,460,461
14787,548,461,462
14788,547,458,461
14789,547,461,460
14790,546,460,461
14791,541,460,462
14792,541,458,462
14793,536,461,461
14794,531,461,462
14795,528,460,462
14796,524,460,460
14797,521,460,460
14798,522,460,461
14799,524,460,459
14800,526,459,460
14801,528,459,460
14802,534,461,459
14803,535,460,462
14804,538,458,461
14805,541,460,461
14806,543,460,462
14807,547,460,461
14808,548,459,459
14809,547,460,462
14810,550,458,462
14811,551,460,462
14812,551,460,460
14813,543,462,458
14814,543,458,461
14815,541,461,462
14816,539,459,461
14817,535,458,460
14818,534,458,459
14819,530,460,461
14820,531,459,461
14821,534,459,463
14822,536,459,462
14823,537,459,462
14824,539,459,461
14825,540,461,460
14826,538,460,461
14827,535,461,462
14828,534,460,458
14829,528,460,460
14830,525,461,461
14831,515,458,460
14832,506,461,461
14833,501,461,462
14834,495,460,461
14835,497,462,461
14836,506,459,462
14837,512,459,460
14838,516,460,462
14839,521,459,461
14840,526,461,460
14841,532,461,460
14842,534,459,459
14843,533,461,462
14844,534,460,460
14845,536,460,462
14846,535,458,461
14847,538,461,461
14848,542,460,461
14849,542,460,459
14850,547,458,460
14851,550,461,461
14852,547,459,460
14853,546,459,463
14854,546,460,461
14855,542,460,460
14856,537,460,460
14857,531,461,461
14858,526,459,460
14859,526,457,459
14860,524,458,460
14861,527,460,461
14862,527,459,460
14863,533,461,461
14864,539,460,462
14865,541,459,462
14866,543,458,461
14867,540,458,461
14868,536,462,462
14869,532,459,459
14870,527,460,461
14871,526,459,461
14872,525,460,461
14873,525,458,462
14874,525,457,459
14875,525,461,462
14876,526,459,463
14877,525,459,461
14878,527,459,460
14879,528,460,462
14880,527,459,461
14881,527,460,461
14882,528,459,462
14883,526,458,461
14884,524,461,460
14885,527,460,459
14886,531,460,460
14887,531,460,459
14888,535,461,461
14889,537,459,459
14890,539,461,461
14891,537,460,461
14892,531,459,461
14893,528,460,461
14894,522,460,461
14895,513,459,462
14896,506,457,461
14897,497,460,459
14898,493,460,461
14899,493,460,461
14900,498,458,461
14901,503,459,458
14902,508,460,463
14903,515,459,462
14904,522,460,462
14905,524,459,462
14906,527,459,460
14907,529,459,461
14908,531,459,459
14909,531,458,461
14910,532,461,462
14911,531,461,461
14912,530,459,461
14913,528,459,461
14914,529,459,459
14915,527,458,461
14916,526,461,459
14917,528,461,462
14918,530,460,461
14919,530,459,462
14920,532,459,462
14921,532,459,461
14922,532,459,461
14923,530,459,462
14924,524,460,462
14925,517,460,461
14926,515,459,460
14927,517,457,461
14928,521,458,461
14929,521,459,461
14930,524,460,461
14931,528,459,461
14932,530,460,460
14933,534,461,462
14934,532,459,460
14935,530,460,461
14936,533,459,460
14937,532,460,461
14938,532,460,461
14939,530,461,462
14940,533,458,461
14941,530,459,462
14942,534,460,460
14943,539,457,460
14944,541,460,461
14945,543,460,461
14946,544,460,460
14947,546,459,460
14948,547,460,461
14949,547,458,462
14950,546,459,462
14951,547,462,461
14952,547,460,460
14953,547,460,461
14954,549,459,461
14955,546,459,461
14956,549,460,461
14957,548,459,460
14958,546,460,459
14959,547,461,463
14960,545,460,463
14961,551,458,460
14962,552,460,462
14963,556,460,458
14964,556,461,460
14965,560,458,461
14966,562,460,461
14967,563,458,460
14968,561,460,462
14969,557,460,462
14970,554,460,461
14971,549,460,462
14972,544,459,461
14973,542,459,460
14974,541,460,462
14975,544,459,462
14976,544,460,461
14977,544,461,460
14978,546,460,461
14979,544,460,457
14980,545,460,460
14981,548,461,461
14982,551,462,461
14983,552,460,458
14984,555,461,459
14985,555,460,461
14986,557,460,464
14987,558,459,460
14988,556,460,460
14989,556,460,461
14990,558,461,460
14991,558,459,462
14992,558,461,459
14993,560,460,461
14994,562,460,461
14995,564,460,461
14996,564,457,460
14997,563,457,460
14998,562,461,460
14999,559,459,462
15000,561,458,461
15001,560,458,462
15002,563,458,461
15003,565,460,461
15004,568,459,462
15005,571,460,460
15006,571,460,460
15007,574,460,461
15008,572,458,462
15009,574,460,461
15010,574,458,461
15011,572,460,459
15012,571,459,461
15013,569,460,460
15014,568,461,461
15015,564,459,461
15016,562,457,460
15017,561,457,462
15018,560,460,461
15019,557,459,461
15020,556,460,460
15021,559,460,461
15022,557,458,460
15023,559,458,461
15024,556,460,462
15025,553,460,461
15026,546,459,460
15027,544,460,462
15028,541,461,460
15029,533,459,460
15030,531,460,460
15031,527,461,461
15032,523,461,461
15033,521,459,461
15034,516,459,462
15035,513,460,460
15036,514,460,463
15037,512,460,462
15038,507,460,460
15039,512,460,460
15040,515,461,462
15041,515,461,461
15042,517,461,462
15043,518,460,461
15044,521,459,461
15045,522,459,460
15046,520,459,462
15047,519,460,461
15048,512,459,459
15049,505,460,461
15050,497,459,462
15051,495,460,460
15052,489,461,460
15053,484,461,461
15054,481,461,462
15055,482,457,462
15056,481,461,462
15057,481,460,463
15058,482,462,461
15059,486,461,461
15060,484,460,460
15061,483,460,462
15062,483,461,461
15063,485,460,463
15064,486,460,462
15065,484,459,462
15066,488,461,461
15067,492,461,460
15068,498,458,461
15069,498,459,460
15070,500,460,461
15071,499,460,459
15072,497,458,460
15073,496,459,461
15074,496,458,461
15075,494,459,462
15076,491,458,461
15077,492,458,461
15078,489,459,462
15079,490,459,462
15080,490,461,462
15081,495,457,461
15082,497,459,462
15083,501,460,460
15084,499,461,459
15085,502,460,462
15086,501,456,461
15087,502,459,462
15088,499,459,461
15089,497,459,460
15090,493,460,461
15091,492,459,461
15092,489,458,463
15093,487,457,461
15094,483,459,460
15095,482,460,460
15096,476,460,462
15097,477,462,459
15098,478,459,460
15099,478,459,462
15100,477,460,461
15101,477,458,461
15102,479,458,461
15103,478,460,461
15104,477,459,460
15105,478,459,460
15106,481,461,461
15107,481,461,461
15108,481,459,462
15109,481,459,461
15110,478,461,460
15111,478,461,461
15112,476,459,460
15113,474,459,462
15114,471,459,462
15115,467,458,460
15116,466,459,461
15117,460,461,461
15118,457,459,461
15119,455,460,462
15120,454,460,459
15121,455,460,461
15122,456,453,461
15123,456,459,459
15124,458,460,462
15125,454,457,461
15126,454,458,460
15127,451,462,460
15128,450,459,461
15129,448,460,461
15130,446,457,459
15131,444,457,461
15132,442,459,461
15133,439,459,461
15134,436,459,461
15135,434,460,462
15136,439,460,462
15137,440,460,461
15138,440,460,462
15139,441,459,461
15140,443,461,461
15141,443,460,460
15142,444,460,461
15143,445,460,460
15144,448,460,461
15145,449,460,462
15146,451,460,461
15147,448,460,461
15148,449,460,460
15149,448,460,463
15150,449,459,461
15151,451,460,462
15152,451,460,462
15153,449,459,461
15154,448,460,459
15155,445,459,459
15156,445,459,461
15157,442,460,461
15158,442,459,460
15159,437,460,461
15160,440,460,461
15161,439,460,459
15162,437,461,462
15163,438,460,461
15164,438,460,462
15165,438,460,461
15166,438,459,463
15167,436,460,462
15168,436,460,460
15169,434,461,461
15170,438,461,461
15171,433,459,457
15172,429,461,460
15173,431,459,460
15174,429,461,461
15175,427,461,458
15176,427,460,459
15177,429,461,461
15178,431,460,459
15179,429,462,461
15180,432,460,459
15181,432,460,460
15182,433,462,460
15183,431,459,461
15184,431,459,461
15185,431,457,462
15186,430,461,461
15187,428,459,461
15188,429,458,460
15189,429,460,461
15190,427,462,461
15191,424,459,461
15192,425,459,459
15193,423,460,462
15194,422,460,461
15195,424,459,459
15196,421,457,461
15197,422,459,461
15198,424,462,461
15199,421,459,463
15200,425,458,461
15201,426,460,461
15202,426,460,460
15203,426,459,461
15204,425,460,460
15205,428,459,462
15206,430,460,461
15207,432,462,461
15208,431,460,461
15209,428,461,462
15210,428,459,461
15211,429,462,461
15212,428,460,461
15213,427,461,461
15214,426,460,460
15215,422,460,460
15216,422,461,460
15217,422,460,460
15218,424,461,461
15219,421,460,459
15220,425,460,461
15221,428,460,461
15222,428,460,461
15223,428,460,461
15224,429,460,462
15225,429,460,460
15226,428,462,460
15227,432,461,461
15228,434,459,461
15229,433,461,459
15230,434,460,462
15231,433,459,461
15232,435,459,461
15233,429,460,461
15234,432,462,462
15235,432,459,463
15236,433,460,462
15237,431,461,460
15238,430,460,462
15239,429,461,460
15240,426,460,459
15241,424,457,462
15242,423,461,462
15243,425,460,460
15244,426,459,461
15245,429,461,460
15246,430,459,461
15247,431,460,462
15248,430,461,462
15249,430,460,460
15250,430,459,460
15251,428,460,461
15252,430,458,461
15253,428,460,461
15254,422,457,462
15255,421,460,461
15256,419,460,461
15257,420,460,461
15258,422,459,461
15259,422,458,460
15260,422,460,460
15261,423,458,460
15262,421,459,461
15263,420,458,460
15264,421,460,462
15265,420,460,461
15266,421,460,461
15267,423,460,460
15268,424,462,462
15269,425,460,462
15270,425,459,463
15271,425,460,459
15272,424,461,461
15273,423,460,461
15274,421,461,461
15275,421,460,460
15276,420,461,462
15277,419,460,461
15278,419,459,460
15279,417,461,462
15280,418,460,461
15281,419,461,461
15282,422,462,459
15283,425,460,459
15284,426,460,459
15285,424,459,462
15286,421,460,462
15287,423,460,461
15288,423,459,462
15289,424,459,462
15290,424,458,461
15291,423,459,459
15292,422,460,461
15293,421,460,461
15294,421,459,460
15295,421,459,462
15296,421,460,460
15297,420,460,461
15298,421,459,463
15299,421,458,462
15300,419,460,462
15301,419,459,462
15302,421,460,461
15303,419,461,462
15304,420,460,461
15305,420,461,460
15306,419,460,460
15307,419,462,461
15308,417,461,461
15309,416,461,462
15310,414,463,460
15311,416,461,460
15312,413,460,461
15313,414,461,460
15314,413,461,461
15315,412,458,460
15316,409,459,462
15317,410,457,460
15318,410,459,461
15319,410,461,461
15320,409,461,460
15321,411,459,460
15322,409,461,458
15323,409,462,463
15324,411,461,462
15325,413,460,462
15326,412,460,461
15327,411,460,459
15328,416,460,461
15329,415,461,461
15330,415,460,462
15331,416,459,462
15332,413,461,461
15333,412,460,462
15334,410,460,462
15335,409,461,461
15336,406,459,461
15337,406,460,461
15338,406,461,458
15339,403,460,461
15340,403,459,461
15341,404,460,461
15342,405,459,461
15343,408,459,461
15344,409,463,462
15345,409,459,463
15346,408,461,461
15347,404,461,462
15348,403,460,463
15349,404,460,461
15350,403,460,462
15351,403,460,461
15352,404,459,462
15353,404,459,458
15354,402,460,462
15355,401,461,462
15356,402,459,461
15357,401,460,461
15358,402,460,460
15359,401,461,459
15360,400,460,460
15361,400,459,463
15362,403,460,461
15363,403,462,460
15364,403,461,460
15365,408,460,461
15366,410,460,461
15367,409,460,461
15368,412,461,460
15369,414,460,460
15370,411,460,462
15371,413,460,461
15372,412,459,460
15373,411,459,461
15374,407,461,461
15375,403,461,462
15376,402,458,462
15377,403,459,461
15378,405,458,460
15379,408,458,460
15380,412,462,461
15381,414,460,461
15382,416,456,461
15383,419,462,462
15384,418,461,459
15385,415,461,460
15386,412,460,461
15387,410,461,460
15388,409,461,459
15389,410,461,461
15390,411,460,462
15391,411,461,461
15392,410,461,461
15393,410,458,462
15394,410,462,462
15395,411,460,462
15396,409,461,462
15397,409,460,459
15398,410,460,460
15399,409,456,460
15400,410,457,460
15401,410,461,461
15402,411,460,461
15403,410,456,461
15404,410,460,461
15405,412,462,461
15406,413,459,461
15407,413,461,462
15408,413,460,462
15409,413,460,459
15410,413,460,460
15411,414,459,461
15412,413,460,459
15413,412,459,461
15414,411,460,462
15415,410,459,462
15416,410,460,462
15417,408,458,460
15418,405,459,462
15419,409,460,462
15420,409,459,461
15421,411,459,462
15422,410,458,459
15423,411,461,461
15424,412,459,461
15425,412,460,462
15426,411,461,461
15427,413,459,461
15428,414,461,459
15429,416,460,461
15430,416,461,457
15431,416,459,461
15432,418,461,462
15433,416,460,463
15434,417,459,461
15435,419,461,462
15436,420,460,463
15437,420,460,460
15438,419,461,461
15439,423,461,460
15440,423,459,462
15441,424,458,461
15442,423,460,461
15443,424,459,462
15444,423,460,459
15445,424,462,461
15446,423,460,462
15447,424,461,462
15448,424,460,462
15449,423,460,462
15450,423,460,463
15451,423,460,462
15452,422,459,462
15453,421,461,462
15454,420,460,461
15455,420,460,462
15456,417,460,462
15457,417,459,461
15458,418,460,462
15459,413,460,462
15460,418,461,461
15461,418,460,462
15462,419,460,461
15463,418,459,462
15464,420,460,461
15465,422,461,461
15466,424,460,462
15467,424,461,460
15468,426,461,462
15469,426,461,461
15470,425,460,461
15471,426,461,462
15472,427,461,460
15473,425,461,461
15474,425,461,458
15475,422,462,460
15476,420,462,459
15477,417,460,461
15478,416,461,462
15479,417,460,459
15480,418,460,462
15481,420,460,462
15482,419,459,461
15483,421,458,461
15484,423,458,462
15485,424,461,461
15486,425,461,461
15487,425,460,461
15488,428,461,460
15489,428,461,460
15490,431,460,462
15491,433,460,462
15492,432,461,462
15493,435,459,462
15494,434,461,462
15495,437,459,461
15496,437,459,461
15497,434,457,460
15498,434,461,461
15499,431,461,460
15500,432,461,461
15501,434,460,463
15502,434,460,462
15503,436,458,461
15504,437,460,460
15505,435,458,461
15506,434,457,461
15507,432,459,461
15508,430,459,461
15509,430,460,461
15510,428,459,461
15511,428,460,459
15512,427,462,460
15513,422,461,462
15514,424,459,461
15515,422,461,463
15516,422,461,461
15517,428,460,462
15518,432,460,462
15519,432,461,462
15520,434,459,462
15521,434,458,461
15522,435,462,462
15523,434,460,461
15524,431,460,462
15525,431,461,462
15526,426,461,459
15527,421,460,462
15528,424,459,461
15529,423,462,462
15530,421,460,462
15531,419,459,463
15532,420,460,462
15533,419,458,462
15534,418,459,461
15535,416,458,462
15536,416,462,462
15537,415,461,463
15538,416,461,462
15539,418,459,461
15540,418,460,461
15541,421,461,463
15542,423,462,460
15543,422,461,460
15544,424,460,462
15545,425,462,460
15546,428,460,461
15547,429,459,463
15548,424,460,463
15549,424,461,462
15550,426,460,462
15551,424,460,461
15552,425,456,461
15553,424,461,461
15554,422,460,461
15555,420,462,461
15556,419,460,462
15557,418,459,463
15558,418,460,461
15559,417,461,461
15560,417,460,462
15561,417,457,460
15562,420,462,461
15563,423,461,461
15564,425,459,462
15565,428,460,462
15566,432,459,462
15567,435,461,462
15568,437,459,461
15569,438,460,461
15570,437,461,462
15571,435,460,460
15572,433,460,462
15573,429,460,461
15574,426,461,461
15575,423,460,462
15576,421,461,462
15577,420,461,462
15578,421,461,461
15579,426,460,461
15580,426,459,462
15581,426,461,459
15582,426,460,461
15583,429,460,461
15584,431,460,463
15585,432,458,462
15586,432,460,462
15587,429,458,462
15588,426,460,463
15589,427,462,460
15590,425,460,462
15591,430,460,462
15592,429,460,461
15593,429,459,462
15594,430,460,461
15595,431,458,461
15596,429,460,459
15597,427,461,461
15598,430,460,460
15599,428,460,459
15600,427,460,459
15601,429,461,461
15602,434,460,462
15603,435,459,461
15604,440,460,461
15605,442,460,462
15606,448,459,462
15607,452,460,462
15608,453,460,462
15609,452,460,462
15610,452,460,462
15611,448,460,460
15612,443,461,463
15613,436,461,461
15614,432,460,462
15615,429,461,462
15616,423,460,462
15617,421,460,462
15618,421,461,459
15619,422,460,461
15620,427,460,461
15621,430,457,462
15622,434,459,462
15623,436,460,461
15624,438,461,462
15625,440,460,461
15626,440,460,462
15627,443,459,460
15628,439,460,460
15629,442,460,461
15630,446,459,460
15631,447,458,462
15632,447,457,461
15633,446,460,460
15634,445,458,463
15635,443,460,460
15636,445,459,460
15637,441,460,462
15638,439,460,461
15639,436,462,461
15640,432,463,461
15641,432,461,460
15642,432,460,462
15643,432,460,462
15644,431,461,461
15645,433,459,461
15646,437,460,461
15647,441,459,461
15648,445,459,463
15649,448,461,464
15650,449,461,461
15651,451,460,461
15652,452,460,460
15653,454,457,462
15654,453,461,461
15655,452,459,461
15656,450,461,460
15657,452,459,460
15658,455,461,462
15659,462,458,461
15660,466,459,461
15661,468,458,461
15662,472,461,462
15663,473,458,462
15664,473,460,462
15665,472,459,461
15666,469,461,462
15667,466,461,461
15668,463,461,458
15669,461,459,462
15670,456,460,463
15671,455,460,462
15672,453,460,459
15673,452,458,462
15674,454,461,460
15675,453,460,462
15676,453,453,460
15677,453,459,463
15678,460,461,461
15679,457,460,461
15680,460,460,463
15681,459,460,463
15682,459,459,462
15683,456,458,462
15684,455,459,463
15685,454,460,460
15686,451,460,462
15687,453,460,461
15688,455,459,460
15689,455,460,459
15690,455,459,459
15691,459,458,462
15692,464,459,463
15693,468,460,463
15694,470,458,462
15695,472,461,461
15696,472,460,462
15697,473,460,461
15698,467,460,461
15699,461,461,461
15700,456,460,463
15701,449,461,461
15702,447,460,463
15703,448,461,461
15704,445,461,462
15705,445,460,460
15706,449,460,462
15707,452,458,460
15708,453,460,461
15709,455,461,462
15710,456,459,462
15711,459,461,461
15712,459,462,462
15713,457,457,461
15714,455,458,460
15715,453,460,461
15716,451,460,462
15717,451,460,462
15718,457,461,461
15719,463,459,463
15720,469,461,462
15721,474,461,461
15722,478,459,460
15723,481,461,460
15724,480,460,463
15725,476,461,462
15726,473,460,464
15727,465,459,462
15728,459,458,461
15729,453,463,461
15730,454,460,461
15731,448,460,462
15732,448,461,461
15733,452,459,462
15734,454,460,462
15735,456,461,461
15736,457,462,462
15737,457,462,462
15738,459,461,462
15739,461,458,462
15740,460,459,462
15741,460,460,460
15742,456,458,460
15743,452,460,462
15744,454,459,460
15745,453,460,461
15746,452,460,461
15747,454,461,461
15748,455,461,462
15749,457,459,462
15750,459,458,462
15751,461,461,462
15752,463,460,462
15753,463,461,461
15754,461,460,461
15755,460,460,460
15756,459,460,462
15757,458,460,461
15758,460,459,462
15759,459,461,462
15760,459,461,462
15761,460,460,462
15762,460,459,462
15763,461,461,460
15764,460,459,461
15765,459,460,462
1741017928333,NEW REP,,
15766,459,462,463
15767,463,460,461
15768,463,460,461
15769,467,457,460
15770,469,460,461
15771,471,459,463
15772,471,459,462
15773,472,460,461
15774,471,460,461
15775,469,460,463
15776,467,461,461
15777,466,459,463
15778,466,458,461
15779,464,457,460
15780,462,461,462
15781,461,461,461
15782,460,459,461
15783,457,460,458
15784,458,458,461
15785,460,461,461
15786,462,459,462
15787,460,459,462
15788,461,461,462
15789,464,462,460
15790,468,461,462
15791,467,460,461
15792,470,461,460
15793,470,460,461
15794,469,460,462
15795,464,460,462
15796,461,460,463
15797,455,460,462
15798,454,460,462
15799,447,461,461
15800,447,460,460
15801,445,459,462
15802,446,459,462
15803,448,458,461
15804,451,461,461
15805,455,459,461
15806,458,458,460
15807,460,460,461
15808,465,461,461
15809,470,459,462
15810,470,460,461
15811,470,459,462
15812,470,460,462
15813,469,461,462
15814,467,461,461
15815,468,460,461
15816,470,461,460
15817,472,461,459
15818,475,461,459
15819,475,460,460
15820,477,460,461
15821,476,459,461
15822,471,459,463
15823,468,461,462
15824,468,460,461
15825,463,461,462
15826,460,460,463
15827,458,460,460
15828,462,459,461
15829,463,459,461
15830,469,460,463
15831,475,457,461
15832,479,460,461
15833,481,460,461
15834,475,461,461
15835,471,460,461
15836,468,460,460
15837,466,458,462
15838,462,460,461
15839,461,458,460
15840,457,462,461
15841,461,461,462
15842,464,460,461
15843,468,460,461
15844,470,460,460
15845,473,459,461
15846,473,459,462
15847,472,459,462
15848,470,461,460
15849,464,459,460
15850,464,460,461
15851,460,457,462
15852,460,459,461
15853,457,459,461
15854,464,460,462
15855,466,460,460
15856,470,462,461
15857,466,458,464
15858,467,459,462
15859,463,459,460
15860,462,458,461
15861,461,458,461
15862,463,461,461
15863,464,460,462
15864,467,460,461
15865,466,460,461
15866,464,460,462
15867,458,459,460
15868,459,460,462
15869,460,461,461
15870,460,461,462
15871,463,461,461
15872,461,460,462
15873,461,460,461
15874,460,459,461
15875,462,457,460
15876,464,457,461
15877,463,458,461
15878,463,456,461
15879,465,457,461
15880,462,460,461
15881,460,460,461
15882,459,459,461
15883,461,460,461
15884,461,459,460
15885,462,460,460
15886,462,460,460
15887,459,462,461
15888,458,459,462
15889,457,459,462
15890,452,460,463
15891,450,460,461
15892,449,459,460
15893,447,458,462
15894,450,460,461
15895,453,460,462
15896,455,460,462
15897,460,460,462
15898,461,460,458
15899,459,459,461
15900,456,460,462
15901,457,459,461
15902,455,459,461
15903,459,461,461
15904,459,460,461
15905,463,460,459
15906,466,458,461
15907,468,457,464
15908,469,460,460
15909,467,459,460
15910,465,459,464
15911,458,460,461
15912,452,460,462
15913,444,460,464
15914,434,459,461
15915,427,459,461
15916,423,459,461
15917,426,457,461
15918,433,457,462
15919,443,460,462
15920,451,459,461
15921,451,460,462
15922,448,460,462
15923,445,461,460
15924,443,459,462
15925,441,460,461
15926,443,459,461
15927,441,460,461
15928,441,460,461
15929,441,460,462
15930,442,462,460
15931,443,459,460
15932,446,460,461
15933,444,462,461
15934,442,461,461
15935,442,461,461
15936,443,460,459
15937,445,460,462
15938,446,457,461
15939,445,460,461
15940,440,460,462
15941,438,459,461
15942,437,459,461
15943,438,459,461
15944,440,461,462
15945,445,459,462
15946,446,460,461
15947,448,458,461
15948,448,458,459
15949,449,460,462
15950,447,460,461
15951,446,461,460
15952,444,462,460
15953,443,458,460
15954,443,461,462
15955,445,461,462
15956,440,460,462
15957,436,460,461
15958,434,460,461
15959,431,459,461
15960,430,461,462
15961,431,460,461
15962,435,458,461
15963,433,458,462
15964,436,459,462
15965,441,458,461
15966,446,459,460
15967,455,460,458
15968,461,461,461
15969,463,460,461
15970,463,460,462
15971,461,460,462
15972,460,460,461
15973,455,460,460
15974,450,460,460
15975,446,459,463
15976,448,461,460
15977,444,461,461
15978,441,460,463
15979,433,461,461
15980,427,460,464
15981,428,462,460
15982,425,460,462
15983,428,459,460
15984,432,460,461
15985,435,460,460
15986,442,459,463
15987,444,457,461
15988,448,460,461
15989,449,460,462
15990,446,461,461
15991,441,462,462
15992,438,459,461
15993,433,460,459
15994,426,460,461
15995,421,461,460
15996,416,460,461
15997,410,460,460
15998,407,460,460
15999,408,460,460
16000,404,460,463
16001,405,461,461
16002,408,462,462
16003,412,460,461
16004,421,460,461
16005,427,462,460
16006,430,461,460
16007,432,459,460
16008,432,457,461
16009,430,461,460
16010,429,460,459
16011,425,460,460
16012,421,459,461
16013,421,461,459
16014,420,460,461
16015,419,460,461
16016,420,461,460
16017,420,459,461
16018,423,459,461
16019,425,459,460
16020,425,459,461
16021,427,461,462
16022,426,461,460
16023,428,460,461
16024,426,461,461
16025,419,457,462
16026,413,460,462
16027,405,459,462
16028,403,458,461
16029,401,459,461
16030,404,459,462
16031,405,460,462
16032,407,460,460
16033,407,457,461
16034,405,460,460
16035,405,458,461
16036,406,459,460
16037,410,461,461
16038,409,461,461
16039,415,460,461
16040,414,460,461
16041,419,460,461
16042,418,459,460
16043,419,458,461
16044,422,459,461
16045,426,460,461
16046,428,461,462
16047,428,460,462
16048,428,458,461
16049,431,457,460
16050,425,462,462
16051,425,457,461
16052,423,459,462
16053,420,461,462
16054,419,460,459
16055,423,460,459
16056,424,462,460
16057,429,459,461
16058,432,461,460
16059,431,460,462
16060,430,459,462
16061,426,460,461
16062,425,460,461
16063,425,460,461
16064,423,459,462
16065,424,458,462
16066,426,457,461
16067,429,458,460
16068,430,460,461
16069,432,460,461
16070,433,460,462
16071,433,460,461
16072,433,459,461
16073,432,458,462
16074,429,460,463
16075,422,460,462
16076,414,460,461
16077,407,460,460
16078,398,460,462
16079,397,458,461
16080,396,459,461
16081,397,459,461
16082,406,461,461
16083,413,459,462
16084,424,461,462
16085,433,459,461
16086,441,461,461
16087,444,460,461
16088,446,460,461
16089,444,461,458
16090,441,457,463
16091,441,460,462
16092,437,460,461
16093,432,459,461
16094,424,459,461
16095,421,459,463
16096,419,461,461
16097,416,460,460
16098,414,461,462
16099,410,459,462
16100,408,462,462
16101,410,460,464
16102,415,460,461
16103,421,461,460
16104,427,460,462
16105,433,460,460
16106,438,459,462
16107,438,462,460
16108,438,461,461
16109,436,459,461
16110,428,458,461
16111,422,462,460
16112,419,460,462
16113,417,461,461
16114,419,461,460
16115,423,461,459
16116,425,462,459
16117,429,460,461
16118,431,458,461
16119,433,458,461
16120,433,458,462
16121,432,460,462
16122,432,459,461
16123,432,459,459
16124,426,459,461
16125,426,460,462
16126,425,462,460
16127,427,460,462
16128,432,460,461
16129,432,460,460
16130,437,460,458
16131,442,461,462
16132,442,461,461
16133,440,459,463
16134,437,461,460
16135,433,460,461
16136,425,461,461
16137,420,461,460
16138,414,460,462
16139,413,461,459
16140,413,460,459
16141,413,461,462
16142,421,460,459
16143,426,459,460
16144,435,461,459
16145,441,461,460
16146,447,460,460
16147,449,460,459
16148,449,460,459
16149,444,461,461
16150,439,461,461
16151,431,460,462
16152,426,461,461
16153,427,459,462
16154,435,458,461
16155,444,459,460
16156,450,460,462
16157,455,459,463
16158,457,460,462
16159,462,460,460
16160,461,461,457
16161,459,459,462
16162,451,459,461
16163,444,459,461
16164,436,462,461
16165,426,461,461
16166,422,460,462
16167,414,459,461
16168,410,460,462
16169,406,461,462
16170,410,459,460
16171,416,459,461
16172,425,460,461
16173,431,459,462
16174,431,459,462
16175,434,460,461
16176,432,460,461
16177,432,460,463
16178,438,461,462
16179,443,461,461
16180,447,458,461
16181,455,461,463
16182,457,460,460
16183,457,461,459
16184,461,460,458
16185,468,461,460
16186,475,461,460
16187,480,460,461
16188,478,461,461
16189,476,462,462
16190,470,459,462
16191,461,462,461
16192,455,461,460
16193,451,460,460
16194,447,461,461
16195,440,460,460
16196,432,462,460
16197,425,460,462
16198,424,461,463
16199,419,461,459
16200,418,460,461
16201,417,461,460
16202,420,461,462
16203,424,461,461
16204,424,461,459
16205,423,461,460
16206,419,460,463
16207,414,461,462
16208,411,461,461
16209,409,460,460
16210,411,461,460
16211,416,460,458
16212,418,459,461
16213,421,462,461
16214,425,461,461
16215,420,460,463
16216,423,461,459
16217,430,459,461
16218,442,459,462
16219,449,462,461
16220,463,459,462
16221,471,462,462
16222,474,461,461
16223,475,460,460
16224,474,462,461
16225,472,461,461
16226,468,460,461
16227,466,461,461
16228,465,459,461
16229,462,460,461
16230,460,459,460
16231,458,461,459
16232,455,461,459
16233,456,461,460
16234,456,459,462
16235,457,461,462
16236,456,462,461
16237,455,460,461
16238,450,460,461
16239,448,459,461
16240,448,461,461
16241,449,461,460
16242,451,461,460
16243,451,461,462
16244,454,460,462
16245,455,459,461
16246,457,460,461
16247,458,461,461
16248,457,460,462
16249,452,460,461
16250,445,461,462
16251,436,460,462
16252,428,460,462
16253,422,459,461
16254,422,458,462
16255,423,461,461
16256,429,461,461
16257,433,460,461
16258,436,462,462
16259,441,459,461
16260,445,460,461
16261,446,459,461
16262,444,459,460
16263,444,460,462
16264,439,460,462
16265,444,460,462
16266,444,460,460
16267,443,460,460
16268,439,462,462
16269,435,461,462
16270,428,458,462
16271,421,459,460
16272,418,461,461
16273,416,460,461
16274,417,460,460
16275,423,458,461
16276,430,460,463
16277,437,461,461
16278,443,460,462
16279,448,461,461
16280,452,462,462
16281,452,462,460
16282,454,460,461
16283,454,460,461
16284,457,460,461
16285,461,461,460
16286,466,461,462
16287,469,460,461
16288,468,460,461
16289,465,458,460
16290,462,461,461
16291,450,459,462
16292,441,459,462
16293,433,460,462
16294,423,459,461
16295,423,459,461
16296,426,460,461
16297,430,460,459
16298,438,459,462
16299,445,461,461
16300,452,461,460
16301,459,459,459
16302,467,456,461
16303,463,457,461
16304,460,459,461
16305,461,460,462
16306,463,460,460
16307,463,461,460
16308,463,459,462
16309,463,459,461
16310,460,459,461
16311,460,459,461
16312,457,461,461
16313,455,459,461
16314,453,459,462
16315,451,458,460
16316,449,461,460
16317,454,460,461
16318,448,459,461
16319,446,460,462
16320,448,460,461
16321,447,459,461
16322,447,459,462
16323,448,460,461
16324,444,460,461
16325,448,459,462
16326,446,460,459
16327,446,461,458
16328,446,459,461
16329,447,459,460
16330,451,460,460
16331,449,460,461
16332,446,459,460
16333,440,461,461
16334,432,457,460
16335,427,461,461
16336,423,460,461
16337,424,459,462
16338,425,460,461
16339,428,461,460
16340,432,461,459
16341,436,460,462
16342,445,458,461
16343,447,460,459
16344,453,461,461
16345,460,459,461
16346,465,460,462
16347,468,460,458
16348,468,461,460
16349,471,461,460
16350,474,458,462
16351,472,461,460
16352,471,460,460
16353,469,462,460
16354,467,459,460
16355,467,461,460
16356,465,453,460
16357,464,461,460
16358,460,460,460
16359,459,460,462
16360,460,459,461
16361,461,461,461
16362,464,460,461
16363,466,461,461
16364,467,458,461
16365,469,457,460
16366,471,458,461
16367,469,460,461
16368,473,457,459
16369,473,459,459
16370,472,459,459
16371,470,459,461
16372,470,459,461
16373,463,462,460
16374,464,461,459
16375,462,460,459
16376,460,459,459
16377,460,460,460
16378,459,460,460
16379,459,461,458
16380,460,461,459
16381,462,460,461
16382,464,460,461
16383,463,460,462
16384,462,460,459
16385,464,457,461
16386,464,460,461
16387,465,458,461
16388,464,460,462
16389,465,460,462
16390,464,460,460
16391,463,461,461
16392,462,457,461
16393,461,460,461
16394,458,461,461
16395,456,460,461
16396,455,458,460
16397,455,460,460
16398,456,460,461
16399,456,461,462
16400,458,460,461
16401,459,458,461
16402,456,460,462
16403,461,460,462
16404,462,460,461
16405,463,461,463
16406,466,459,461
16407,467,459,461
16408,468,460,460
16409,470,459,461
16410,470,460,460
16411,470,458,461
16412,469,460,459
16413,466,460,461
16414,467,460,464
16415,465,460,460
16416,463,459,460
16417,460,461,459
16418,460,459,459
16419,460,461,461
16420,461,460,462
16421,461,460,461
16422,461,461,462
16423,462,461,460
16424,463,459,461
16425,464,458,461
16426,468,458,462
16427,470,459,461
16428,469,461,461
16429,472,460,462
16430,471,459,461
16431,468,461,460
16432,467,459,462
16433,466,457,461
16434,461,460,460
16435,461,460,461
16436,456,461,461
16437,455,460,459
16438,455,461,461
16439,453,460,461
16440,451,460,458
16441,451,461,461
16442,454,460,462
16443,455,460,462
16444,458,457,462
16445,459,459,458
16446,462,459,463
16447,469,461,462
16448,473,460,462
16449,475,461,462
16450,474,462,460
16451,477,460,457
16452,477,460,461
16453,481,460,460
16454,480,459,462
16455,480,460,460
16456,479,459,461
16457,479,460,461
16458,478,459,461
16459,476,460,461
16460,478,460,460
16461,481,459,461
16462,484,458,460
16463,487,460,460
16464,490,459,462
16465,489,460,462
16466,490,459,459
16467,493,459,461
16468,494,460,462
16469,492,460,461
16470,491,459,462
16471,489,460,461
16472,494,461,462
16473,495,461,461
16474,497,458,462
16475,500,460,461
16476,500,460,461
16477,498,461,461
16478,497,462,461
16479,499,461,460
16480,497,460,460
16481,495,460,460
16482,495,460,462
16483,499,459,460
16484,505,462,459
16485,507,459,459
16486,511,458,460
16487,514,461,461
16488,515,461,460
16489,518,459,461
16490,519,459,461
16491,518,460,462
16492,514,461,462
16493,515,460,462
16494,511,460,462
16495,511,460,462
16496,508,461,461
16497,506,460,460
16498,504,461,461
16499,501,459,460
16500,503,460,462
16501,505,456,461
16502,507,459,460
16503,511,460,461
16504,514,460,462
16505,514,459,460
16506,516,459,461
16507,513,460,461
16508,512,460,462
16509,509,458,462
16510,508,460,461
16511,508,460,462
16512,503,459,460
16513,500,461,461
16514,496,461,458
16515,494,458,461
16516,494,458,461
16517,495,459,460
16518,496,459,461
16519,498,461,459
16520,500,459,460
16521,502,460,462
16522,503,458,460
16523,504,460,460
16524,506,459,459
16525,508,459,461
16526,511,461,461
16527,511,460,462
16528,515,460,460
16529,517,458,461
16530,517,460,461
16531,517,460,460
16532,516,460,459
16533,515,461,461
16534,515,458,461
16535,515,461,461
16536,515,459,462
16537,514,459,462
16538,516,460,460
16539,519,461,460
16540,519,460,461
16541,524,460,462
16542,525,462,460
16543,524,460,460
16544,526,462,460
16545,528,461,461
16546,528,463,461
16547,530,459,461
16548,532,460,461
16549,529,461,462
16550,533,459,461
16551,535,460,460
16552,538,460,461
16553,538,461,459
16554,537,458,461
16555,531,460,460
16556,531,460,460
16557,531,459,461
16558,536,459,462
16559,539,459,459
16560,551,460,457
16561,565,461,461
16562,578,461,458
16563,583,459,461
16564,591,459,460
16565,595,460,462
16566,603,459,460
16567,607,460,461
16568,609,457,461
16569,607,459,461
16570,601,459,460
16571,595,461,461
16572,586,459,462
16573,578,461,460
16574,578,461,460
16575,579,461,460
16576,582,460,458
16577,586,461,462
16578,587,460,463
16579,589,458,461
16580,588,461,460
16581,580,460,461
16582,567,461,461
16583,550,462,462
16584,543,460,461
16585,536,459,459
16586,532,461,461
16587,541,458,460
16588,547,456,459
16589,556,460,461
16590,560,460,460
16591,563,459,461
16592,561,460,461
16593,555,461,460
16594,550,461,460
16595,545,460,460
16596,542,459,462
16597,539,459,461
16598,538,458,460
16599,538,462,460
16600,533,460,458
16601,534,460,462
16602,531,461,461
16603,528,459,460
16604,522,459,461
16605,518,459,458
16606,514,460,461
16607,509,460,462
16608,501,460,463
16609,497,460,461
16610,497,460,460
16611,495,461,462
16612,494,459,461
16613,492,460,461
16614,488,460,460
16615,483,459,460
16616,481,459,461
16617,483,460,461
16618,485,460,459
16619,490,459,460
16620,495,458,460
16621,501,461,460
16622,504,460,460
16623,509,459,462
16624,507,460,460
16625,514,462,461
16626,515,460,462
16627,515,458,461
16628,516,458,462
16629,519,460,461
16630,518,461,459
16631,520,460,461
16632,521,457,461
16633,519,460,460
16634,517,459,461
16635,511,461,460
16636,505,460,462
16637,501,460,461
16638,497,460,461
16639,491,459,462
16640,482,460,460
16641,480,460,461
16642,479,460,460
16643,479,461,460
16644,486,459,461
16645,489,460,462
16646,493,460,462
16647,492,459,461
16648,493,457,461
16649,495,460,461
16650,497,458,462
16651,496,461,462
16652,495,460,459
16653,492,460,461
16654,485,460,461
16655,476,458,461
16656,469,460,461
16657,468,459,461
16658,464,460,460
16659,465,462,462
16660,471,460,460
16661,475,460,460
16662,481,459,461
16663,487,462,462
16664,492,460,462
16665,494,460,461
16666,499,461,461
16667,500,460,460
16668,497,459,461
16669,495,460,460
16670,492,460,462
16671,486,460,459
16672,482,461,461
16673,480,459,461
16674,484,460,460
16675,486,460,462
16676,493,459,460
16677,493,459,462
16678,494,460,460
16679,492,460,460
16680,492,460,461
16681,489,461,463
16682,486,460,463
16683,487,457,461
16684,491,461,461
16685,495,461,461
16686,498,461,462
16687,502,459,461
16688,505,460,462
16689,510,459,463
16690,514,458,460
16691,518,461,461
16692,519,460,459
16693,514,460,459
16694,508,459,463
16695,505,460,461
16696,500,459,462
16697,494,460,462
16698,489,461,461
16699,485,461,459
16700,483,459,461
16701,484,460,463
16702,486,459,461
16703,488,461,462
16704,492,458,461
16705,496,459,460
16706,502,460,461
16707,509,460,461
16708,512,460,461
16709,513,460,461
16710,514,459,462
16711,509,456,459
16712,503,459,460
16713,500,459,462
16714,494,460,462
16715,488,461,461
16716,484,460,461
16717,479,461,462
16718,477,458,460
16719,477,460,461
16720,476,461,461
16721,479,460,461
16722,480,459,460
16723,485,458,461
16724,487,459,461
16725,493,459,462
16726,496,459,463
16727,498,461,461
16728,502,459,461
16729,500,459,461
16730,499,460,460
16731,502,462,462
16732,501,459,462
16733,500,458,461
16734,496,460,463
16735,492,460,463
16736,491,461,462
16737,494,458,461
16738,493,460,461
16739,494,460,461
16740,494,461,462
16741,493,460,462
16742,489,458,464
16743,484,460,464
16744,478,460,460
16745,474,460,462
16746,474,460,461
16747,475,460,462
16748,481,459,461
16749,485,459,460
16750,487,458,461
16751,490,459,462
16752,489,460,460
16753,492,459,459
16754,492,460,461
16755,490,460,458
16756,494,458,461
16757,494,458,461
16758,493,459,462
16759,494,461,461
16760,489,460,460
16761,489,459,462
16762,487,460,462
16763,488,457,461
16764,488,461,459
16765,491,460,463
16766,492,461,462
16767,491,460,462
16768,489,459,461
16769,484,460,459
16770,480,461,461
16771,481,460,461
16772,480,460,459
16773,481,461,461
16774,482,460,461
16775,485,459,461
16776,485,460,461
16777,488,461,462
16778,490,460,462
16779,493,460,461
16780,494,460,461
16781,497,458,464
16782,499,461,459
16783,502,458,460
16784,503,460,461
16785,505,459,460
16786,507,460,462
16787,508,459,462
16788,508,461,461
16789,505,457,462
16790,504,459,461
16791,500,459,461
16792,497,460,458
16793,493,460,460
16794,491,460,462
16795,490,460,461
16796,487,458,462
16797,483,460,462
16798,482,459,459
16799,482,460,462
16800,482,461,460
16801,481,460,460
16802,484,460,461
16803,483,460,462
16804,483,459,462
16805,482,460,463
16806,481,458,461
16807,477,459,461
16808,480,459,458
16809,483,459,461
16810,481,460,460
16811,484,460,460
16812,483,461,461
16813,484,459,462
16814,481,460,459
16815,478,461,459
16816,474,460,461
16817,470,460,461
16818,465,458,460
16819,458,459,462
16820,454,461,463
16821,442,462,461
16822,437,461,462
16823,429,459,461
16824,423,460,458
16825,422,459,461
16826,422,457,461
16827,429,460,460
16828,432,461,459
16829,434,461,461
16830,434,461,460
16831,431,461,461
16832,428,458,461
16833,418,460,461
16834,412,460,461
16835,408,459,461
16836,403,458,459
16837,401,460,461
16838,400,459,460
16839,399,461,460
16840,402,460,461
16841,406,460,460
16842,409,462,461
16843,410,460,462
16844,418,461,462
16845,428,459,461
16846,434,461,461
16847,439,459,461
16848,447,458,460
16849,451,459,461
16850,457,462,460
16851,458,461,462
16852,460,460,462
16853,460,460,460
16854,458,459,459
16855,453,461,460
16856,447,460,462
16857,440,459,462
16858,437,459,460
16859,439,459,461
16860,439,461,462
16861,440,460,461
16862,444,460,460
16863,446,462,460
16864,449,460,457
16865,450,459,461
16866,455,459,461
16867,459,461,461
16868,462,460,459
16869,465,459,459
16870,467,459,461
16871,465,461,458
16872,464,460,459
16873,464,460,460
16874,459,458,461
16875,455,460,460
16876,452,459,461
16877,452,461,459
16878,451,460,462
16879,454,462,461
16880,456,458,461
16881,457,461,461
16882,455,459,462
16883,457,460,462
16884,458,459,462
16885,457,459,459
16886,458,459,462
16887,459,460,461
16888,459,460,461
16889,462,460,461
16890,462,459,461
16891,468,460,462
16892,470,460,459
16893,469,459,460
16894,469,459,462
16895,469,459,460
16896,472,461,462
16897,474,461,461
16898,476,460,462
16899,476,462,462
16900,480,458,459
16901,481,458,461
16902,483,461,461
16903,484,461,461
16904,490,461,461
16905,495,459,461
16906,503,458,462
16907,510,461,462
16908,516,461,461
16909,524,459,461
16910,529,459,462
16911,534,459,459
16912,534,460,460
16913,537,460,462
16914,537,461,464
16915,543,460,461
16916,541,460,460
16917,543,461,459
16918,542,459,462
16919,540,462,462
16920,539,460,459
16921,538,459,462
16922,537,459,462
16923,535,460,461
16924,534,460,459
16925,534,461,461
16926,532,460,461
16927,534,460,461
16928,535,459,461
16929,537,462,462
16930,538,461,460
16931,536,456,460
16932,537,462,461
16933,539,460,458
16934,541,459,460
16935,542,463,461
16936,543,459,460
16937,545,461,461
16938,544,460,460
16939,545,458,461
16940,545,460,461
16941,543,461,461
16942,542,460,462
16943,544,461,461
16944,540,461,461
16945,542,459,460
16946,539,459,461
16947,540,460,461
16948,540,460,459
16949,542,461,460
16950,543,459,460
16951,542,459,463
16952,539,460,461
16953,536,460,461
16954,533,460,461
16955,535,460,461
16956,533,460,460
16957,533,459,462
16958,530,460,461
16959,529,461,462
16960,525,462,461
16961,529,461,462
16962,528,459,460
16963,532,461,461
16964,533,459,461
16965,539,461,462
16966,544,462,462
16967,547,458,460
16968,551,460,461
16969,549,460,462
16970,553,460,460
16971,556,458,459
16972,556,460,460
16973,552,460,460
16974,552,456,460
16975,547,462,462
16976,541,461,461
16977,538,460,461
16978,538,462,460
16979,534,459,462
16980,536,460,461
16981,535,459,462
16982,538,460,461
16983,540,460,461
16984,541,460,460
16985,549,460,461
16986,551,460,461
16987,553,461,462
16988,554,460,462
16989,557,461,460
16990,558,460,461
16991,559,459,461
16992,560,461,461
16993,562,460,459
16994,561,461,459
16995,562,460,461
16996,561,461,460
16997,560,461,461
16998,556,460,461
16999,561,461,461
17000,559,461,461
17001,560,459,460
17002,560,462,460
17003,562,459,461
17004,563,461,462
17005,565,460,462
17006,566,458,460
17007,561,459,459
17008,563,460,462
17009,560,458,461
17010,560,459,460
17011,557,460,460
17012,554,461,460
17013,557,459,461
17014,557,460,460
17015,556,460,461
17016,550,458,461
17017,550,458,459
17018,546,459,462
17019,548,458,462
17020,546,459,462
17021,541,460,459
17022,541,460,457
17023,540,460,460
17024,540,460,461
17025,541,461,460
17026,541,460,460
17027,540,458,461
17028,540,460,460
17029,538,459,461
17030,541,459,461
17031,538,461,461
17032,535,460,458
17033,533,462,461
17034,534,461,461
17035,532,460,462
17036,531,457,461
17037,531,459,462
17038,527,459,460
17039,527,460,461
17040,523,461,458
17041,526,460,461
17042,526,460,459
17043,527,460,461
17044,530,458,461
17045,533,459,462
17046,533,460,462
17047,535,460,461
17048,537,460,460
17049,535,460,463
17050,539,460,461
17051,539,461,460
17052,540,460,459
17053,538,461,462
17054,537,460,461
17055,536,459,460
17056,534,459,461
17057,529,462,459
17058,522,460,462
17059,516,460,461
17060,516,461,462
17061,514,461,460
17062,516,460,461
17063,515,460,461
17064,515,460,462
17065,514,459,461
17066,515,460,460
17067,517,459,462
17068,515,461,461
17069,516,459,459
17070,517,462,462
17071,516,461,458
17072,521,460,461
17073,522,461,461
17074,525,462,461
17075,525,459,462
17076,525,460,461
17077,527,459,462
17078,526,460,461
17079,525,458,461
17080,526,460,460
17081,526,460,461
17082,526,465,461
17083,523,461,462
17084,524,460,461
17085,523,462,462
17086,521,460,461
17087,524,458,461
17088,522,461,460
17089,521,460,461
17090,517,460,462
17091,521,461,461
17092,519,460,462
17093,517,459,461
17094,512,460,461
17095,508,459,461
17096,508,458,461
17097,507,461,460
17098,509,460,462
17099,511,458,461
17100,510,460,461
17101,508,459,461
17102,506,460,461
17103,503,457,462
17104,501,460,461
17105,498,462,462
17106,501,459,463
17107,499,458,460
17108,499,460,460
17109,498,460,461
17110,497,460,461
17111,497,459,459
17112,497,460,461
17113,497,461,460
17114,497,460,462
17115,493,457,463
17116,498,461,460
17117,495,461,461
17118,495,457,461
17119,496,461,460
17120,496,459,462
17121,496,461,461
17122,488,460,462
17123,489,459,461
17124,489,460,463
17125,492,460,461
17126,494,456,459
17127,498,460,460
17128,497,461,461
17129,497,458,461
17130,494,458,461
17131,493,459,461
17132,494,461,462
17133,492,459,461
17134,493,462,462
17135,493,460,462
17136,493,461,460
17137,493,460,458
17138,495,457,461
17139,495,459,460
17140,497,457,461
17141,495,460,458
17142,493,460,462
17143,494,460,461
17144,492,460,460
17145,493,461,462
17146,494,460,462
17147,496,460,463
17148,496,461,459
17149,497,461,461
17150,498,461,462
17151,495,459,461
17152,496,461,461
17153,495,459,461
17154,495,460,461
17155,494,458,461
17156,491,459,462
17157,489,460,461
17158,482,461,462
17159,485,460,462
17160,482,460,460
17161,481,459,462
17162,484,460,461
17163,483,460,460
17164,485,460,462
17165,487,459,462
17166,488,459,461
17167,491,457,459
17168,488,460,461
17169,489,460,461
17170,488,457,462
17171,488,459,463
17172,486,460,461
17173,486,460,461
17174,487,459,460
17175,485,459,461
17176,482,461,461
17177,483,460,462
17178,480,459,462
17179,479,461,460
17180,478,459,460
17181,477,460,461
17182,478,461,461
17183,479,460,460
17184,478,460,461
17185,481,461,462
17186,478,461,458
17187,479,460,461
17188,478,460,462
17189,475,459,460
17190,474,461,462
17191,474,461,462
17192,475,460,461
17193,476,460,463
17194,475,459,460
17195,475,460,462
17196,473,460,462
17197,471,459,462
17198,469,458,461
17199,467,459,461
17200,468,460,459
17201,466,459,462
17202,463,459,462
17203,463,459,461
17204,465,460,458
17205,466,459,462
17206,465,458,462
17207,465,460,460
17208,467,459,459
17209,466,460,462
17210,467,459,460
17211,467,460,462
17212,467,460,462
17213,467,459,460
17214,469,460,461
17215,468,458,462
17216,463,460,462
17217,464,461,462
17218,460,458,462
17219,461,459,462
17220,456,460,460
17221,454,461,463
17222,452,460,459
17223,451,459,462
17224,450,460,460
17225,452,460,462
17226,452,460,461
17227,454,458,459
17228,455,459,461
17229,455,459,461
17230,455,461,462
17231,457,459,460
17232,458,460,462
17233,459,460,460
17234,460,459,461
17235,460,458,461
17236,458,460,462
17237,461,460,461
17238,458,460,460
17239,456,458,462
17240,453,460,460
17241,451,459,460
17242,451,460,460
17243,448,458,462
17244,447,460,461
17245,447,461,461
17246,446,459,461
17247,444,460,460
17248,445,460,460
17249,447,460,461
17250,449,460,461
17251,445,459,462
17252,446,459,462
17253,445,460,460
17254,444,458,461
17255,442,460,459
17256,441,460,462
17257,441,459,462
17258,440,460,461
17259,437,459,458
17260,439,460,459
17261,435,459,463
17262,436,459,461
17263,437,460,459
17264,438,457,461
17265,440,458,463
17266,442,460,462
17267,443,458,461
17268,444,459,461
17269,445,460,461
17270,444,458,462
17271,441,460,462
17272,438,458,462
17273,433,460,462
17274,433,459,462
17275,431,460,462
17276,428,461,459
17277,428,460,460
17278,426,460,462
17279,427,459,461
17280,427,460,461
17281,425,459,461
17282,426,458,462
17283,429,460,462
17284,432,459,459
17285,433,457,461
17286,435,458,462
17287,436,459,462
17288,436,462,462
17289,438,461,461
17290,436,458,463
17291,433,461,462
17292,431,460,461
17293,432,460,462
17294,429,460,462
17295,428,458,462
17296,426,460,461
17297,421,460,461
17298,421,457,461
17299,420,458,462
17300,422,458,461
17301,420,459,462
17302,420,461,462
17303,421,460,460
17304,418,460,460
17305,420,460,462
17306,421,461,461
17307,422,459,462
17308,419,460,462
17309,423,459,462
17310,425,461,460
17311,423,460,462
17312,423,459,462
17313,423,460,459
17314,422,460,461
17315,424,459,460
17316,424,460,461
17317,423,460,461
17318,427,460,461
17319,431,460,463
17320,431,460,462
17321,434,460,460
17322,434,460,462
17323,436,460,464
17324,435,460,460
17325,432,456,461
17326,430,460,462
17327,429,460,460
17328,429,460,461
17329,430,460,462
17330,430,457,461
17331,428,462,461
17332,430,460,462
17333,429,461,462
17334,425,461,459
17335,424,461,460
17336,422,459,462
17337,420,459,460
17338,419,458,461
17339,422,462,462
17340,424,459,461
17341,424,460,463
17342,424,459,462
17343,426,460,461
17344,428,460,462
17345,431,459,461
17346,430,457,461
17347,432,459,462
17348,430,461,460
17349,433,460,460
17350,433,459,461
17351,438,459,461
17352,439,459,461
17353,443,460,462
17354,448,460,461
17355,453,460,461
17356,454,460,461
17357,455,460,463
17358,456,460,462
17359,450,461,461
17360,448,459,465
17361,443,460,463
17362,439,460,462
17363,437,460,461
17364,438,460,461
17365,438,459,460
17366,440,461,461
17367,443,458,461
17368,445,460,461
17369,449,459,462
17370,451,459,460
17371,451,460,462
17372,448,460,461
17373,451,460,461
17374,452,461,461
17375,452,460,463
17376,452,459,460
17377,451,460,462
17378,453,461,462
17379,455,458,462
17380,454,459,461
17381,453,461,458
17382,454,460,462
17383,453,460,461
17384,449,461,462
17385,444,460,459
17386,439,460,461
17387,443,459,462
17388,447,461,460
17389,453,459,461
17390,459,460,458
17391,468,460,463
17392,473,456,462
17393,478,458,462
17394,480,462,462
17395,479,461,462
17396,477,459,461
17397,471,461,459
17398,468,460,461
17399,460,458,460
17400,449,460,459
17401,442,459,462
17402,433,460,462
17403,428,460,461
17404,428,460,461
17405,429,459,460
17406,429,458,462
17407,429,461,462
17408,434,459,461
17409,437,457,461
17410,440,459,462
17411,441,460,462
17412,442,458,462
17413,440,461,461
17414,444,460,463
17415,448,459,463
17416,449,460,461
17417,452,458,460
17418,460,460,461
17419,462,460,461
17420,466,459,460
17421,470,458,462
17422,468,460,460
17423,467,462,461
17424,463,459,461
17425,461,460,462
17426,457,461,460
17427,455,460,459
17428,452,461,461
17429,448,460,461
17430,449,460,462
17431,451,459,460
17432,451,459,461
17433,449,462,462
17434,446,460,459
17435,440,462,461
17436,439,459,462
17437,440,461,461
17438,438,459,459
17439,444,460,461
17440,446,460,461
17441,448,459,461
17442,449,460,461
17443,451,461,460
17444,453,460,459
17445,458,461,461
17446,460,459,460
17447,460,460,461
17448,465,460,462
17449,468,460,461
17450,469,459,462
17451,469,460,459
17452,465,460,461
17453,464,460,460
17454,465,460,460
17455,464,459,461
17456,460,461,462
17457,457,459,461
17458,453,461,459
17459,449,460,461
17460,446,459,460
17461,440,459,462
17462,439,460,461
17463,435,460,462
17464,431,457,461
17465,432,459,461
17466,433,461,460
17467,439,460,463
17468,446,460,463
17469,453,459,461
17470,457,461,460
17471,464,461,459
17472,469,459,462
17473,475,460,461
17474,475,459,461
17475,472,459,460
17476,466,460,461
17477,460,460,460
17478,456,460,461
17479,448,459,462
17480,448,460,461
17481,443,460,460
17482,441,461,459
17483,438,459,460
17484,439,459,462
17485,442,459,462
17486,448,460,459
17487,450,462,459
17488,451,460,461
17489,452,462,460
17490,452,457,459
17491,450,462,461
17492,448,461,462
17493,443,460,461
17494,437,459,460
17495,435,459,459
17496,434,459,462
17497,435,460,461
17498,436,461,462
17499,437,460,460
17500,440,459,462
17501,443,459,462
17502,445,461,461
17503,450,459,463
17504,452,460,460
17505,458,462,462
17506,461,460,459
17507,463,462,461
17508,465,460,461
17509,465,460,462
17510,464,462,463
17511,465,462,460
17512,463,461,460
17513,466,459,461
17514,465,458,461
17515,463,459,460
17516,460,461,460
17517,454,460,461
17518,453,461,461
17519,453,459,460
17520,449,461,461
17521,449,459,460
17522,448,460,462
17523,445,458,462
17524,446,461,460
17525,445,461,460
17526,445,459,460
17527,453,461,462
17528,458,457,461
17529,461,459,462
17530,467,458,460
17531,469,462,460
17532,473,460,460
17533,474,461,460
17534,470,458,460
17535,465,460,461
17536,460,459,460
17537,457,461,462
17538,459,461,461
17539,453,460,461
17540,451,460,461
17541,451,459,461
17542,452,460,463
17543,451,460,460
17544,452,461,461
17545,452,462,457
17546,453,460,460
17547,450,460,461
17548,447,458,461
17549,450,460,461
17550,448,460,461
17551,450,459,462
17552,448,460,458
17553,451,460,461
17554,455,460,460
17555,462,460,460
17556,472,462,461
1741017930124,NEW REP,,
17557,477,459,461
17558,479,459,458
17559,479,460,460
17560,478,460,462
17561,473,461,462
17562,462,461,462
17563,453,460,461
17564,451,460,460
17565,448,461,458
17566,448,460,461
17567,452,461,461
17568,456,459,461
17569,457,461,461
17570,462,460,459
17571,462,461,461
17572,463,460,460
17573,461,460,461
17574,457,460,462
17575,455,460,460
17576,456,459,462
17577,455,459,460
17578,456,460,461
17579,462,458,459
17580,467,460,462
17581,471,460,461
17582,474,459,462
17583,479,460,460
17584,482,459,460
17585,483,459,461
17586,480,460,462
17587,477,461,461
17588,475,459,461
17589,471,459,462
17590,464,459,460
17591,463,459,461
17592,462,458,462
17593,463,460,460
17594,465,460,458
17595,465,458,460
17596,465,459,462
17597,466,461,461
17598,464,460,460
17599,461,459,462
17600,460,461,461
17601,458,459,461
17602,459,461,460
17603,459,460,458
17604,458,461,460
17605,459,461,461
17606,463,460,461
17607,466,458,461
17608,467,459,461
17609,473,459,461
17610,474,460,457
17611,481,461,462
17612,486,457,461
17613,487,458,461
17614,485,460,461
17615,478,460,461
17616,471,460,460
17617,465,460,462
17618,459,459,462
17619,449,460,461
17620,449,460,462
17621,449,460,461
17622,450,458,462
17623,452,460,461
17624,454,460,460
17625,459,459,461
17626,460,460,460
17627,466,458,462
17628,471,460,463
17629,474,459,462
17630,473,459,462
17631,472,460,461
17632,467,460,463
17633,459,459,462
17634,459,458,462
17635,456,460,461
17636,454,460,460
17637,458,459,462
17638,462,459,462
17639,470,459,461
17640,471,460,462
17641,474,460,460
17642,472,461,463
17643,469,460,461
17644,464,459,462
17645,459,459,461
17646,454,459,460
17647,455,459,462
17648,455,458,461
17649,454,460,462
17650,451,460,461
17651,451,460,461
17652,454,459,460
17653,456,458,461
17654,459,460,462
17655,464,459,463
17656,466,461,461
17657,466,461,459
17658,465,462,463
17659,465,459,464
17660,463,459,462
17661,461,459,461
17662,459,460,463
17663,456,461,461
17664,456,460,462
17665,456,460,461
17666,458,461,462
17667,464,460,462
17668,467,460,460
17669,470,460,459
17670,471,456,461
17671,469,459,461
17672,468,460,462
17673,464,460,462
17674,459,461,461
17675,455,459,460
17676,451,459,460
17677,447,459,462
17678,444,461,460
17679,441,460,462
17680,440,459,461
17681,437,460,461
17682,437,459,462
17683,437,458,461
17684,438,459,461
17685,435,460,460
17686,437,459,461
17687,437,460,461
17688,437,460,462
17689,441,460,461
17690,443,459,465
17691,443,460,459
17692,449,460,461
17693,455,458,462
17694,457,457,462
17695,461,460,462
17696,463,461,461
17697,463,460,461
17698,462,461,462
17699,461,460,461
17700,459,461,459
17701,456,459,463
17702,450,459,462
17703,452,462,460
17704,447,459,462
17705,452,459,461
17706,452,461,460
17707,453,460,461
17708,452,460,461
17709,449,460,462
17710,442,460,462
17711,439,460,461
17712,436,460,461
17713,436,460,461
17714,433,461,464
17715,436,460,462
17716,434,459,460
17717,435,460,461
17718,433,459,461
17719,435,460,461
17720,439,458,459
17721,438,460,462
17722,440,460,460
17723,441,461,462
17724,444,460,460
17725,445,460,460
17726,449,459,462
17727,447,460,460
17728,451,461,462
17729,452,461,460
17730,453,460,460
17731,448,460,460
17732,450,458,462
17733,447,459,463
17734,447,461,461
17735,445,460,463
17736,446,460,462
17737,443,460,460
17738,438,459,458
17739,438,459,460
17740,432,459,460
17741,430,459,461
17742,428,461,462
17743,428,460,462
17744,424,460,460
17745,423,461,462
17746,423,461,461
17747,422,460,461
17748,424,459,463
17749,424,460,462
17750,422,461,461
17751,420,459,459
17752,420,460,459
17753,418,459,461
17754,412,460,461
17755,414,459,462
17756,412,460,462
17757,413,461,461
17758,414,460,461
17759,412,459,460
17760,409,457,460
17761,411,459,461
17762,409,460,462
17763,408,459,461
17764,407,459,462
17765,407,459,463
17766,406,460,460
17767,404,460,461
17768,405,460,462
17769,407,460,462
17770,409,457,460
17771,412,460,461
17772,412,460,462
17773,416,460,460
17774,417,460,461
17775,418,461,461
17776,416,460,462
17777,419,461,461
17778,419,460,461
17779,419,458,460
17780,420,461,461
17781,419,459,462
17782,420,460,462
17783,420,460,461
17784,420,461,461
17785,419,461,461
17786,421,460,461
17787,420,460,461
17788,420,460,460
17789,424,458,463
17790,423,461,462
17791,424,461,460
17792,423,460,463
17793,423,461,460
17794,422,460,461
17795,420,461,461
17796,418,460,461
17797,416,461,462
17798,414,459,461
17799,410,459,460
17800,405,460,461
17801,401,459,462
17802,397,460,460
17803,390,461,459
17804,387,459,461
17805,380,460,461
17806,374,461,461
17807,375,461,461
17808,373,459,462
17809,376,460,463
17810,375,458,461
17811,374,461,462
17812,378,458,462
17813,377,460,462
17814,373,460,461
17815,371,459,461
17816,369,461,461
17817,366,461,460
17818,362,461,461
17819,360,458,461
17820,358,461,460
17821,358,461,460
17822,359,460,461
17823,359,459,462
17824,361,460,460
17825,363,460,462
17826,365,460,462
17827,368,458,461
17828,367,458,463
17829,369,461,461
17830,371,461,460
17831,371,460,461
17832,373,460,463
17833,378,460,461
17834,383,462,460
17835,390,459,462
17836,392,457,461
17837,391,457,461
17838,391,461,462
17839,388,461,460
17840,384,460,461
17841,379,460,461
17842,377,462,461
17843,374,461,461
17844,375,459,461
17845,377,459,463
17846,383,460,462
17848,403,456,462
17849,412,459,462
17851,424,459,461
17852,427,458,460
17854,439,459,460
17854,441,460,460
17855,441,460,461
17856,442,459,462
17857,439,461,461
17858,438,458,461
17859,433,461,461
17860,430,460,459
17861,429,461,461
17862,434,460,460
17863,436,461,462
17863,438,460,461
17864,442,459,461
17865,443,458,460
17866,446,461,461
17867,450,458,462
17868,454,459,461
17869,455,458,462
17870,455,460,459
17871,457,460,460
17871,457,459,462
17872,454,461,463
17873,453,461,460
17874,451,462,462
17875,445,460,460
17876,438,459,463
17877,432,460,459
17878,422,460,459
17879,417,460,462
17880,411,460,461
17881,404,457,459
17882,400,458,461
17883,398,459,461
17884,397,461,461
17885,397,460,461
17886,396,460,459
17887,398,460,460
17888,397,460,462
17889,399,457,460
17890,402,459,462
17891,403,460,460
17892,410,460,458
17893,418,457,462
17894,422,460,461
17895,425,460,460
17896,431,458,459
17897,432,459,461
17898,433,460,460
17899,433,459,460
17900,433,461,463
17901,435,459,461
17902,440,459,461
17903,443,457,461
17904,446,461,458
17905,451,460,460
17906,450,459,460
17907,444,460,457
17908,440,459,461
17909,435,459,462
17910,429,457,462
17911,423,460,460
17912,416,460,461
17913,410,460,462
17914,408,460,462
17915,405,462,459
17916,406,460,462
17917,409,459,460
17918,412,461,461
17919,412,460,461
17920,420,459,462
17921,423,460,462
17922,425,460,461
17923,425,460,460
17924,429,460,460
17925,428,459,460
17926,427,461,461
17927,422,460,461
17928,420,460,462
17929,413,462,461
17930,409,461,462
17931,406,460,460
17932,406,462,460
17933,406,460,460
17934,407,459,461
17935,405,460,461
17936,402,460,461
17937,397,459,462
17938,394,458,461
17939,393,460,458
17940,397,458,462
17941,404,460,461
17942,410,461,459
17943,419,457,461
17944,424,460,461
17945,430,461,462
17946,433,461,462
17947,435,458,461
17948,434,458,462
17949,428,461,460
17950,421,460,459
17951,418,458,459
17952,412,459,461
17953,409,457,460
17954,410,459,460
17955,411,458,462
17956,413,461,461
17957,413,460,461
17958,416,461,462
17959,412,462,459
17960,414,460,461
17961,410,462,460
17962,408,460,461
17963,404,459,462
17964,400,459,461
17965,396,459,460
17966,393,460,462
17967,388,461,460
17968,391,460,459
17969,399,461,462
17970,408,460,461
17971,416,462,462
17972,428,460,462
17973,436,461,461
17974,441,459,460
17975,454,459,462
17976,460,459,462
17977,461,462,462
17978,466,461,461
17979,466,461,460
17980,468,460,460
17981,469,460,459
17982,470,461,461
17983,478,465,461
17984,481,459,462
17985,483,460,461
17986,485,461,460
17987,484,460,462
17988,483,459,464
17989,483,459,461
17990,477,461,460
17991,466,458,460
17992,453,459,462
17993,441,458,462
17994,431,461,461
17995,425,457,461
17996,421,458,461
17997,416,458,462
17998,415,461,461
17999,416,460,461
18000,423,459,461
18001,428,460,462
18002,438,459,462
18003,448,460,461
18004,455,460,461
18005,463,460,461
18006,472,459,461
18007,477,460,462
18008,489,461,460
18009,496,462,461
18010,502,460,461
18011,507,460,461
18012,510,459,460
18013,507,460,461
18014,499,461,459
18015,488,458,460
18016,472,460,460
18017,458,459,461
18018,446,460,462
18019,439,461,461
18020,433,459,460
18021,427,460,460
18022,425,459,462
18023,426,460,462
18024,433,460,460
18025,441,460,462
18026,449,461,460
18027,461,461,461
18028,470,460,460
18029,480,460,461
18030,492,461,461
18031,497,460,461
18032,500,460,460
18033,500,459,459
18034,504,461,459
18035,509,459,462
18036,510,460,461
18037,507,458,462
18038,506,459,461
18039,500,461,461
18040,493,461,461
18041,492,461,463
18042,495,461,461
18043,499,460,462
18044,506,460,461
18045,513,459,461
18046,517,460,462
18047,519,457,460
18048,517,459,461
18049,509,460,462
18050,509,460,461
18051,504,460,462
18052,500,461,461
18053,502,460,461
18054,505,457,460
18055,511,457,461
18056,517,458,461
18057,522,460,460
18058,531,460,460
18059,536,461,463
18060,542,459,461
18061,549,460,461
18062,553,460,460
18063,558,460,462
18064,561,460,459
18065,564,461,460
18066,563,460,461
18067,566,460,460
18068,566,460,461
18069,568,459,460
18070,568,460,461
18071,566,459,461
18072,565,461,461
18073,563,458,461
18074,563,461,462
18075,560,460,461
18076,563,459,462
18077,563,462,462
18078,561,461,461
18079,560,461,461
18080,561,460,462
18081,562,460,462
18082,558,461,460
18083,557,460,461
18084,554,463,462
18085,556,460,461
18086,557,460,462
18087,557,460,461
18088,556,460,460
18089,560,460,461
18090,561,459,461
18091,563,459,462
18092,563,461,460
18093,562,460,462
18094,565,459,461
18095,558,461,461
18096,558,460,462
18097,547,459,460
18098,541,459,462
18099,532,459,462
18100,527,460,461
18101,523,459,462
18102,518,461,461
18103,518,460,458
18104,520,461,461
18105,523,459,461
18106,529,460,461
18107,529,458,461
18108,530,461,462
18109,533,460,459
18110,536,459,462
18111,532,461,460
18112,530,460,461
18113,528,459,462
18114,523,461,462
18115,515,459,461
18116,509,460,461
18117,502,460,461
18118,496,459,460
18119,493,459,458
18120,493,458,462
18121,492,461,457
18122,494,460,460
18123,493,459,461
18124,492,459,460
18125,489,459,462
18126,488,458,460
18127,483,460,460
18128,480,459,458
18129,472,460,464
18130,473,460,461
18131,472,461,462
18132,468,459,461
18133,465,461,461
18134,466,460,461
18135,468,460,458
18136,473,460,462
18137,476,460,460
18138,478,459,461
18139,481,460,460
18140,484,459,461
18141,486,459,461
18142,483,461,461
18143,489,459,461
18144,490,457,461
18145,493,461,460
18146,493,459,462
18147,494,460,460
18148,493,461,460
18149,493,461,461
18150,492,460,459
18151,492,459,458
18152,493,459,460
18153,491,460,461
18154,492,460,461
18155,494,457,462
18156,492,460,460
18157,491,459,461
18158,490,458,460
18159,488,461,461
18160,488,460,461
18161,488,460,460
18162,489,460,462
18163,488,460,462
18164,489,459,462
18165,487,461,462
18166,486,460,459
18167,484,459,461
18168,486,460,462
18169,486,460,461
18170,486,460,462
18171,485,459,461
18172,484,460,460
18173,482,458,462
18174,481,459,460
18175,479,459,461
18176,473,460,461
18177,471,459,458
18178,473,459,462
18179,470,459,461
18180,467,461,461
18181,465,458,462
18182,463,460,461
18183,460,460,462
18184,460,459,461
18185,460,460,462
18186,458,460,459
18187,461,459,462
18188,461,460,461
18189,461,460,463
18190,461,460,461
18191,461,459,460
18192,463,459,461
18193,464,461,462
18194,464,458,460
18195,463,460,460
18196,460,460,462
18197,458,458,461
18198,453,460,462
18199,447,459,461
18200,441,460,461
18201,441,461,463
18202,438,459,461
18203,437,460,460
18204,434,460,459
18205,434,460,460
18206,433,459,461
18207,432,460,461
18208,431,460,460
18209,430,459,456
18210,428,461,461
18211,426,459,459
18212,427,459,460
18213,423,461,460
18214,422,460,460
18215,419,461,461
18216,413,461,461
18217,408,460,461
18218,404,459,460
18219,400,461,462
18220,400,459,461
18221,398,460,462
18222,396,458,461
18223,396,458,460
18224,396,460,461
18225,394,459,462
18226,394,459,461
18227,392,458,462
18228,396,460,461
18229,395,460,461
18230,398,460,459
18231,398,459,462
18232,398,460,460
18233,398,460,461
18234,396,461,458
18235,395,459,461
18236,394,459,461
18237,391,460,459
18238,390,459,462
18239,388,461,460
18240,389,458,462
18241,388,460,461
18242,387,460,461
18243,388,458,461
18244,388,461,461
18245,390,460,462
18246,389,459,462
18247,389,458,462
18248,388,461,461
18249,389,458,462
18250,388,460,461
18251,385,461,461
18252,385,459,462
18253,380,460,462
18254,377,460,460
18255,375,461,459
18256,376,459,462
18257,374,459,460
18258,379,459,462
18259,380,460,461
18260,380,459,459
18261,384,457,460
18262,388,460,462
18263,396,459,462
18264,392,460,460
18265,395,460,461
18266,395,461,459
18267,397,460,461
18268,399,460,462
18269,402,460,461
18270,404,461,460
18271,407,459,461
18272,408,461,461
18273,410,461,462
18274,410,459,460
18275,413,460,461
18276,413,461,461
18277,412,460,461
18278,411,460,460
18279,412,461,462
18280,409,459,459
18281,411,460,458
18282,413,461,460
18283,413,460,461
18284,417,458,460
18285,419,459,461
18286,420,460,459
18287,424,459,460
18288,425,457,460
18289,426,460,461
18290,431,458,461
18291,432,461,462
18292,433,457,461
18293,431,460,460
18294,431,459,460
18295,430,459,458
18296,430,461,461
18297,428,460,461
18298,430,460,460
18299,427,460,459
18300,428,459,460
18301,426,458,461
18302,428,458,460
18303,425,462,462
18304,423,460,461
18305,420,460,460
18306,414,459,461
18307,412,460,461
18308,413,459,460
18309,416,458,461
18310,417,461,458
18311,427,460,458
18312,431,459,461
18313,436,459,461
18314,441,460,460
18315,442,460,461
18316,446,455,461
18317,447,460,462
18318,446,460,459
18319,446,461,460
18320,446,457,459
18321,446,461,460
18322,444,462,460
18323,444,458,459
18324,447,460,461
18325,448,461,462
18326,453,459,461
18327,457,457,460
18328,460,461,460
18329,460,460,460
18330,461,460,462
18331,461,461,461
18332,460,460,460
18333,458,460,461
18334,459,459,458
18335,457,460,462
18336,461,458,461
18337,461,457,459
18338,463,461,460
18339,464,460,459
18340,461,459,461
18341,462,462,461
18342,465,459,460
18343,461,460,460
18344,459,460,460
18345,459,460,461
18346,458,460,461
18347,459,459,462
18348,461,459,460
18349,459,460,459
18350,460,457,460
18351,462,460,461
18352,463,460,462
18353,465,462,461
18354,467,460,459
18355,469,459,461
18356,470,460,460
18357,471,459,460
18358,471,460,462
18359,470,459,462
18360,467,460,461
18361,463,460,462
18362,461,459,461
18363,457,460,460
18364,454,457,461
18365,452,460,461
18366,452,457,462
18367,449,460,462
18368,457,460,462
18369,455,458,460
18370,456,461,462
18371,456,459,460
18372,455,461,461
18373,454,460,463
18374,454,460,459
18375,451,459,460
18376,449,460,460
18377,449,460,461
18378,448,461,462
18379,448,460,462
18380,444,461,459
18381,445,461,461
18382,444,459,464
18383,443,460,462
18384,441,460,459
18385,437,460,461
18386,431,461,460
18387,424,460,460
18388,418,464,461
18389,414,461,461
18390,411,459,458
18391,413,460,461
18392,418,458,461
18393,425,460,461
18394,429,461,462
18395,434,460,460
18396,436,461,460
18397,437,459,462
18398,439,460,460
18399,440,459,461
18400,441,461,461
18401,441,462,461
18402,444,463,461
18403,445,461,461
18404,450,463,461
18405,451,460,461
18406,452,461,459
18407,457,460,459
18408,458,460,460
18409,462,461,461
18410,462,462,461
18411,464,461,460
18412,466,461,459
18413,467,459,458
18414,466,460,458
18415,467,461,461
18416,466,460,461
18417,464,459,460
18418,462,461,461
18419,460,459,460
18420,459,461,460
18421,458,460,459
18422,456,461,459
18423,457,461,461
18424,459,461,462
18425,457,461,460
18426,459,457,460
18427,458,460,460
18428,454,460,461
18429,454,461,460
18430,451,459,461
18431,450,460,460
18432,449,459,461
18433,450,461,462
18434,450,459,460
18435,449,460,462
18436,446,462,460
18437,443,459,460
18438,439,460,460
18439,434,461,460
18440,431,461,460
18441,428,462,459
18442,422,460,461
18443,423,461,461
18444,419,458,460
18445,417,461,461
18446,413,459,458
18447,417,460,461
18448,422,460,461
18449,427,460,462
18450,438,461,461
18451,449,460,462
18452,455,458,461
18453,458,460,460
18454,458,460,461
18455,466,460,461
18456,464,460,461
18457,465,461,461
18458,469,460,460
18459,472,460,461
18460,473,457,460
18461,475,461,460
18462,475,459,462
18463,479,459,460
18464,482,461,461
18465,485,460,460
18466,486,461,460
18467,491,460,461
18468,493,460,461
18469,497,459,461
18470,494,460,462
18471,497,460,460
18472,497,459,461
18473,495,460,462
18474,496,461,459
18475,495,460,462
18476,494,460,458
18477,490,459,462
18478,483,461,458
18479,482,461,460
18480,478,459,461
18481,473,461,462
18482,470,459,461
18483,466,461,461
18484,471,461,460
18485,475,459,462
18486,480,460,461
18487,486,462,461
18488,492,460,458
18489,494,462,462
18490,502,460,461
18491,502,459,462
18492,500,460,459
18493,502,460,463
18494,503,460,461
18495,503,458,461
18496,501,460,462
18497,505,460,461
18498,504,461,460
18499,502,457,460
18500,503,461,462
18501,499,460,459
18502,496,460,462
18503,489,461,460
18504,482,460,461
18505,476,460,462
18506,473,460,462
18507,470,462,463
18508,467,460,461
18509,468,461,460
18510,467,459,461
18511,476,461,462
18512,479,460,462
18513,483,461,461
18514,488,459,462
18515,488,460,462
18516,490,460,461
18517,489,461,458
18518,492,459,462
18519,489,460,462
18520,488,458,460
18521,486,460,461
18522,487,460,460
18523,485,461,461
18524,485,461,461
18525,483,460,461
18526,485,458,460
18527,484,460,460
18528,483,460,462
18529,487,459,461
18530,488,459,460
18531,490,453,460
18532,492,460,463
18533,493,461,462
18534,492,460,460
18535,489,460,462
18536,485,459,461
18537,479,461,461
18538,477,460,459
18539,476,459,462
18540,476,460,461
18541,478,458,461
18542,482,461,461
18543,486,456,460
18544,490,459,460
18545,495,460,461
18546,496,460,461
18547,501,460,460
18548,505,458,461
18549,508,459,461
18550,511,459,462
18551,513,461,461
18552,514,461,459
18553,511,460,460
18554,508,460,461
18555,504,461,459
18556,502,459,461
18557,498,461,462
18558,494,459,461
18559,491,460,460
18560,489,460,459
18561,488,460,461
18562,486,459,460
18563,485,459,463
18564,482,461,460
18565,483,460,461
18566,483,460,462
18567,485,458,461
18568,487,460,461
18569,489,460,462
18570,491,460,461
18571,493,459,460
18572,494,460,462
18573,493,460,460
18574,494,460,460
18575,490,459,462
18576,488,462,461
18577,483,458,460
18578,475,460,461
18579,471,461,460
18580,465,459,460
18581,463,459,461
18582,460,460,459
18583,461,460,461
18584,461,460,462
18585,460,459,459
18586,465,461,461
18587,466,460,460
18588,464,459,462
18589,463,461,460
18590,462,461,460
18591,459,460,461
18592,458,458,461
18593,459,460,462
18594,459,461,461
18595,461,459,462
18596,461,459,461
18597,460,460,461
18598,460,461,461
18599,461,460,460
18600,462,459,462
18601,465,460,462
18602,464,460,461
18603,463,460,461
18604,461,458,462
18605,457,460,460
18606,455,459,462
18607,451,461,459
18608,454,459,461
18609,461,461,461
18610,463,459,461
18611,469,460,462
18612,474,461,463
18613,478,461,461
18614,479,461,462
18615,486,460,462
18616,487,460,462
18617,491,461,462
18618,493,460,462
18619,491,459,463
18620,496,461,458
18621,498,460,461
18622,503,461,462
18623,507,459,462
18624,512,460,462
18625,513,462,460
18626,522,459,462
18627,527,461,462
18628,532,458,461
18629,535,462,462
18630,538,460,461
18631,542,461,460
18632,544,458,461
18633,545,460,461
18634,547,459,461
18635,547,460,461
18636,547,458,462
18637,550,459,462
18638,546,461,462
18639,548,460,462
18640,549,460,462
18641,549,460,461
18642,548,461,461
18643,547,461,462
18644,549,460,463
18645,548,459,462
18646,548,462,461
18647,547,460,461
18648,547,460,462
18649,545,459,462
18650,542,461,459
18651,539,459,462
18652,538,460,462
18653,535,460,462
18654,530,460,461
18655,526,461,461
18656,522,462,458
18657,516,461,459
18658,513,460,462
18659,505,461,459
18660,502,460,460
18661,502,459,459
18662,504,460,460
18663,505,458,461
18664,508,461,462
18665,511,459,461
18666,512,460,461
18667,518,461,461
18668,522,459,461
18669,523,460,463
18670,527,460,461
18671,529,460,460
18672,531,459,461
18673,531,460,462
18674,532,461,461
18675,534,459,461
18676,533,460,462
18677,533,461,460
18678,533,460,461
18679,534,460,460
18680,534,460,462
18681,532,459,461
18682,532,458,461
18683,528,461,461
18684,524,460,459
18685,528,460,461
18686,527,461,462
18687,527,459,460
18688,526,461,462
18689,527,459,459
18690,527,460,461
18691,529,460,460
18692,529,459,461
18693,529,460,461
18694,529,460,461
18695,527,461,460
18696,525,458,462
18697,524,460,462
18698,523,458,461
18699,522,458,462
18700,523,458,461
18701,523,460,461
18702,522,457,460
18703,521,460,459
18704,523,461,462
18705,523,461,459
18706,524,460,462
18707,525,461,460
18708,525,459,460
18709,524,459,461
18710,525,459,462
18711,526,458,461
18712,528,460,459
18713,529,457,462
18714,529,460,462
18715,529,459,461
18716,526,459,461
18717,525,461,460
18718,521,460,463
18719,524,460,461
18720,520,457,460
18721,518,461,461
18722,512,460,462
18723,513,461,461
18724,510,458,460
18725,513,459,461
18726,512,459,462
18727,515,460,461
18728,515,461,459
18729,517,460,462
18730,513,461,462
18731,510,458,461
18732,509,459,461
18733,507,460,459
18734,510,459,461
18735,507,457,459
18736,506,459,461
18737,503,459,461
18738,504,460,460
18739,501,459,459
18740,500,460,460
18741,498,458,461
18742,496,460,459
18743,495,461,461
18744,494,460,457
18745,499,460,458
18746,495,460,461
18747,495,459,459
18748,499,460,462
18749,498,460,462
18750,503,460,461
18751,503,460,460
18752,506,459,461
18753,506,461,461
18754,502,461,463
18755,504,457,460
18756,502,460,461
18757,504,459,461
18758,500,461,460
18759,503,461,460
18760,504,460,461
18761,501,460,461
18762,504,460,463
18763,504,460,461
18764,503,461,461
18765,500,461,460
18766,501,460,462
18767,499,459,457
18768,500,460,460
18769,498,458,462
18770,500,459,460
18771,500,457,459
18772,501,459,461
18773,497,460,461
18774,495,460,459
18775,494,459,461
18776,488,460,460
18777,486,462,459
18778,486,460,461
18779,486,460,460
18780,487,458,461
18781,486,460,461
18782,487,458,461
18783,489,460,461
18784,492,461,461
18785,492,460,462
18786,496,460,461
18787,496,461,461
18788,498,458,460
18789,499,461,460
18790,497,458,460
18791,497,459,459
18792,499,460,461
18794,502,460,460
18795,500,460,459
18795,501,459,460
18796,498,459,461
18797,498,461,461
18798,497,461,461
18799,495,461,461
18800,494,460,461
18801,492,462,461
18802,489,460,460
18803,487,462,462
18804,486,462,461
18805,489,462,459
18806,491,459,462
18807,491,457,461
18808,492,460,459
18809,492,460,461
18810,492,461,459
18811,492,460,461
18812,492,460,459
18813,494,460,461
18814,494,461,460
18815,493,460,460
18816,495,461,461
18817,495,458,462
18818,495,461,460
18819,494,461,460
18820,496,460,462
18821,498,460,461
18822,496,460,460
18823,495,460,461
18824,495,458,462
18825,492,459,462
18826,490,461,461
18827,488,461,461
18828,488,462,462
18829,488,459,461
18830,490,459,461
18831,489,458,461
18832,487,461,462
18833,490,460,462
18834,490,459,459
18835,491,460,461
18836,491,458,462
18837,491,459,461
18838,490,459,461
18839,491,461,462
18840,489,461,459
18841,489,460,460
18842,488,460,461
18843,483,460,462
18844,485,460,462
18845,483,460,462
18846,482,460,458
18847,485,460,461
18848,485,459,462
18849,489,461,461
18850,488,460,462
18851,487,460,462
18852,489,460,462
18853,492,459,461
18854,486,460,461
18855,487,459,461
18856,485,458,460
18857,482,462,462
18858,480,460,461
18859,478,459,462
18860,476,459,461
18861,474,460,462
18862,472,461,460
18863,471,459,460
18864,470,460,459
18865,469,461,463
18866,472,461,460
18867,475,460,461
18868,477,459,462
18869,477,459,461
18870,478,461,461
18871,479,461,461
18872,481,460,462
18873,482,461,461
18874,482,462,461
18875,480,460,461
18876,473,460,462
18877,476,460,462
18878,473,461,461
18879,469,460,461
18880,469,460,461
18881,468,459,461
18882,467,462,461
18883,463,460,461
18884,465,460,460
18885,461,460,461
18886,461,459,460
18887,459,460,460
18888,458,461,461
18889,460,461,462
18890,458,460,462
18891,457,460,461
18892,455,460,461
18893,456,459,461
18894,456,460,461
18895,457,461,459
18896,456,460,462
18897,454,461,462
18898,453,457,459
18899,451,460,461
18900,446,460,459
18901,445,461,460
18902,437,458,462
18903,440,459,461
18904,438,461,462
18905,437,459,461
18906,436,460,459
18907,435,459,460
18908,431,459,461
18909,438,460,459
18910,440,461,462
18911,443,460,460
18912,447,461,461
18913,450,460,460
18914,450,459,461
18915,445,461,461
18916,445,459,461
18917,440,459,461
18918,439,459,461
18919,436,460,460
18920,435,459,462
18921,432,458,461
18922,429,460,462
18923,430,460,462
18924,427,461,460
18925,427,459,462
18926,425,461,460
18927,426,460,461
18928,425,459,460
18929,425,460,462
18930,421,460,462
18931,423,459,459
18932,422,459,462
18933,422,461,460
18934,422,461,460
18935,421,461,462
18936,418,456,461
18937,419,458,459
18938,416,458,461
18939,414,458,461
18940,411,458,462
18941,408,460,460
18942,407,457,461
18943,402,460,462
18944,401,460,462
18945,404,460,458
18946,403,460,461
18947,401,460,461
18948,403,459,462
18949,404,459,460
18950,403,460,462
18951,405,461,462
18952,403,461,461
18953,404,460,460
18954,400,460,459
18955,400,460,462
18956,400,460,461
18957,398,461,460
18958,400,460,461
18959,399,458,461
18960,398,461,462
18961,398,462,460
18962,394,460,461
18963,390,461,462
18964,387,460,459
18965,386,461,463
18966,381,459,459
18967,381,460,458
18968,379,460,462
18969,381,458,462
18970,381,461,460
18971,377,460,460
18972,378,461,463
18973,378,458,462
18974,377,459,460
18975,377,459,461
18976,377,459,462
18977,376,460,461
18978,376,459,461
18979,372,459,461
18980,374,459,462
18981,375,461,462
18982,373,460,461
18983,376,459,462
18984,376,460,462
18985,374,460,461
18986,376,458,461
18987,375,460,461
18988,373,460,463
18989,372,460,461
18990,372,458,460
18991,374,460,461
18992,375,459,462
18993,375,459,461
18994,377,460,460
18995,379,459,461
18996,377,459,462
18997,376,460,461
18998,375,459,461
18999,374,460,462
19000,372,460,461
19001,370,459,461
19002,367,459,461
19003,367,460,462
19004,368,458,461
19005,366,460,463
19006,367,460,459
19007,371,459,460
19008,373,460,461
19009,376,460,462
19010,378,460,460
19011,381,460,461
19012,380,460,462
19013,384,459,462
19014,385,459,462
19015,383,460,459
19016,384,460,460
19017,386,460,461
19018,387,460,460
19019,383,460,460
19020,386,460,461
19021,382,459,459
19022,383,461,458
19023,384,459,459
19024,386,459,462
19025,387,460,461
19026,385,460,461
19027,389,461,462
19028,388,460,458
19029,387,459,462
19030,387,459,458
19031,389,460,460
19032,385,460,461
19033,388,459,461
19034,387,459,462
19035,389,457,461
19036,392,460,462
19037,393,460,460
19038,392,459,461
19039,392,460,461
19040,390,460,462
19041,391,460,461
19042,389,460,461
19043,392,457,462
19044,392,457,460
19045,395,461,462
19046,399,459,460
19047,401,458,461
19048,401,458,460
19049,405,461,461
19050,408,460,461
19051,409,460,460
19052,409,460,461
19053,409,460,464
19054,408,460,461
19055,407,456,462
19056,405,460,459
19057,406,460,462
19058,401,461,461
19059,404,460,461
19060,400,458,462
19061,399,458,461
19062,398,460,461
19063,396,461,462
19064,398,461,461
19065,397,460,462
19066,398,458,461
19067,400,460,461
19068,401,460,462
19069,403,460,461
19070,402,460,461
19071,400,460,460
19072,400,459,461
19073,399,461,459
19074,400,461,462
19075,399,460,461
19076,402,459,462
19077,405,459,461
19078,407,459,462
19079,406,460,462
19080,406,460,460
19081,408,460,461
19082,407,461,461
19083,414,460,460
19084,417,460,461
19085,416,460,462
19086,420,459,462
19087,421,460,462
19088,424,458,461
19089,423,458,461
19090,421,461,462
19091,422,461,460
19092,419,460,461
19093,417,459,461
19094,414,461,462
19095,412,461,461
19096,411,458,461
19097,414,460,462
19098,414,460,461
19099,415,460,459
19100,416,460,462
19101,415,459,462
19102,417,459,462
19103,416,462,463
19104,414,461,461
19105,415,461,460
19106,409,461,460
19107,408,460,462
19108,403,461,460
19109,407,460,460
19110,408,459,462
19111,410,462,463
19112,414,462,462
19113,411,460,463
19114,414,462,461
19115,416,459,463
19116,416,461,461
19117,415,459,462
19118,417,461,460
19119,414,460,461
19120,413,459,461
19121,414,460,463
19122,417,460,459
19123,415,461,464
19124,419,460,461
19125,420,460,461
19126,420,460,463
19127,422,460,461
19128,420,459,461
19129,419,459,460
19130,415,460,461
19131,413,459,460
19132,411,460,463
19133,412,460,462
19134,413,459,461
19135,414,461,461
19136,416,461,460
19137,417,460,461
19138,417,461,461
19139,413,460,460
19140,409,460,461
19141,404,460,462
19142,407,461,462
19143,409,459,460
19144,408,460,460
19145,412,458,461
19146,415,460,460
19147,423,459,460
19148,427,459,462
19149,427,458,462
19150,427,459,460
19151,428,461,462
19152,427,460,460
19153,422,460,461
19154,418,459,462
19155,417,459,462
19156,415,459,461
19157,416,458,462
19158,416,461,461
19159,413,461,461
19160,417,460,459
19161,419,460,462
19162,421,459,462
19163,420,461,461
19164,419,461,461
19165,416,459,462
19166,416,460,462
19167,413,461,461
19168,408,462,462
19169,407,460,462
19170,407,459,461
19171,407,457,461
19172,412,460,461
19173,414,461,461
19174,420,459,461
19175,423,460,461
19176,429,461,460
19177,431,460,461
19178,433,458,461
19179,432,457,462
19180,432,461,462
19181,428,461,461
19182,426,461,461
19183,420,458,461
19184,416,460,461
19185,416,461,461
19186,416,459,461
19187,419,459,461
19188,421,461,461
19189,420,460,462
19190,425,459,460
19191,427,460,461
19192,428,459,461
19193,434,461,461
19194,432,462,462
19195,431,459,461
19196,427,460,460
19197,427,460,460
19198,424,462,460
19199,420,460,462
19200,416,461,461
19201,416,460,461
19202,417,460,461
19203,416,461,460
19204,415,461,459
19205,415,460,462
19206,414,458,461
19207,414,458,460
19208,416,460,461
19209,413,459,461
19210,417,459,462
19211,416,460,459
19212,416,461,461
19213,419,461,461
19214,421,461,461
19215,421,459,459
19216,420,461,461
19217,424,460,462
19218,422,462,461
19219,422,460,458
19220,424,459,462
19221,428,461,462
19222,431,461,458
19223,435,460,461
19224,437,461,460
19225,437,458,461
19226,436,460,458
19227,430,460,462
19228,428,459,461
19229,425,461,461
19230,427,460,462
19231,426,460,460
19232,426,460,460
19233,423,460,461
19234,425,461,461
19235,431,461,460
19236,437,460,461
19237,442,461,461
19238,444,460,461
19239,441,462,461
19240,443,461,462
19241,440,460,461
19242,436,457,462
19243,432,461,460
19244,428,459,462
19245,426,460,460
19246,427,462,462
19247,428,459,462
19248,430,461,461
19249,432,462,462
19250,439,461,462
19251,442,460,461
19252,445,459,461
19253,449,459,461
19254,450,459,463
19255,447,460,463
19256,444,457,462
19257,445,461,462
19258,440,462,460
19259,439,461,462
19260,438,461,460
19261,438,461,462
19262,438,461,461
19263,441,460,461
19264,441,460,462
19265,442,460,461
19266,442,460,460
19267,444,462,461
19268,445,460,461
19269,447,460,462
19270,450,461,459
19271,452,461,461
19272,453,459,462
19273,457,460,463
19274,460,460,461
19275,465,460,461
19276,468,460,460
19277,471,460,461
1741017931845,NEW REP,,
19278,471,459,462
19279,469,458,462
19280,467,458,460
19281,462,459,463
19282,458,461,461
19283,454,460,460
19284,453,459,460
19285,447,460,460
19286,451,461,460
19287,454,459,461
19288,455,462,459
19289,457,460,461
19290,458,460,461
19291,456,462,460
19292,456,459,462
19293,452,460,462
19294,452,458,461
19295,450,460,460
19296,447,461,461
19297,446,460,463
19298,449,461,462
19299,449,460,463
19300,451,456,460
19301,451,460,460
19302,453,460,462
19303,456,460,461
19304,462,460,462
19305,467,460,462
19306,472,457,460
19307,472,461,461
19308,471,462,459
19309,467,459,462
19310,464,460,460
19311,456,461,462
19312,450,459,462
19313,446,460,462
19314,444,460,462
19315,440,460,463
19316,441,460,462
19317,439,460,461
19318,441,458,461
19319,439,461,461
19320,441,460,463
19321,439,459,461
19322,439,460,462
19323,437,459,461
19324,438,461,462
19325,438,458,461
19326,440,459,462
19327,439,460,462
19328,442,461,462
19329,445,461,462
19330,446,461,461
19331,452,460,462
19332,457,460,460
19333,456,462,461
19334,456,460,458
19335,454,459,462
19336,452,460,461
19337,450,460,462
19338,447,460,461
19339,443,460,461
19340,446,460,461
19341,448,457,461
19342,450,460,462
19343,452,460,461
19344,456,459,459
19345,454,461,461
19346,455,460,461
19347,452,461,460
19348,446,460,462
19349,448,459,462
19350,450,460,460
19351,453,461,460
19352,457,460,461
19353,457,458,461
19354,459,460,461
19355,458,457,460
19356,458,457,460
19357,455,460,460
19358,452,460,459
19359,446,458,461
19360,446,459,462
19361,442,460,460
19362,438,460,461
19363,433,461,462
19364,432,460,462
19365,431,458,459
19366,434,458,461
19367,441,460,461
19368,444,461,459
19369,447,458,461
19370,446,458,463
19371,442,461,461
19372,441,462,460
19373,442,459,461
19374,442,461,462
19375,438,460,461
19376,442,460,460
19377,440,460,459
19378,441,459,462
19379,441,459,461
19380,437,459,463
19381,433,461,462
19382,428,460,462
19383,430,460,461
19384,424,461,463
19385,422,460,461
19386,419,460,460
19387,417,460,461
19388,413,461,460
19389,409,461,461
19390,405,460,460
19391,402,460,461
19392,403,459,462
19393,402,459,462
19394,404,461,461
19395,402,459,459
19396,399,459,461
19397,398,462,462
19398,396,460,461
19399,400,460,462
19400,396,460,462
19401,398,459,462
19402,401,460,461
19403,403,460,461
19404,404,460,461
19405,403,460,461
19406,404,460,462
19407,401,461,462
19408,399,461,462
19409,400,458,462
19410,400,459,462
19411,401,460,460
19412,403,460,460
19413,403,459,461
19414,400,461,461
19415,402,460,461
19416,397,459,460
19417,397,460,461
19418,392,461,462
19419,388,461,461
19420,381,459,462
19421,378,459,461
19422,379,460,461
19423,380,461,461
19424,386,461,461
19425,390,457,462
19426,390,460,461
19427,386,458,461
19428,384,460,461
19429,387,459,461
19430,383,459,461
19431,381,461,460
19432,380,460,461
19433,378,459,462
19434,381,460,460
19435,380,460,461
19436,382,462,461
19437,384,460,462
19438,384,460,462
19439,387,459,461
19440,388,460,462
19441,385,460,461
19442,383,460,461
19443,382,461,459
19444,379,460,463
19445,373,460,462
19446,367,458,461
19447,361,460,462
19448,357,462,462
19449,352,457,461
19450,348,460,460
19451,345,459,461
19452,346,459,462
19453,349,463,461
19454,352,458,462
19455,356,460,461
19456,358,458,461
19457,360,461,461
19458,362,460,461
19459,366,460,461
19460,369,462,461
19461,370,461,459
19462,373,460,462
19463,373,460,459
19464,375,460,461
19465,376,457,462
19466,377,458,462
19467,378,459,463
19468,378,460,461
19469,377,460,459
19470,376,459,461
19471,374,460,461
19472,371,458,461
19473,372,460,461
19474,369,459,461
19475,372,459,462
19476,370,461,462
19477,370,460,461
19478,368,460,463
19479,367,461,460
19480,368,461,463
19481,366,459,461
19482,364,459,462
19483,363,460,462
19484,362,459,462
19485,361,461,461
19486,360,459,461
19487,359,460,460
19488,358,460,462
19489,354,460,461
19490,354,460,462
19491,349,459,461
19492,345,460,462
19493,343,457,463
19494,342,461,463
19495,342,461,459
19496,344,460,461
19497,342,459,462
19498,342,459,462
19499,341,460,462
19500,339,457,461
19501,333,459,461
19502,330,460,461
19503,324,459,462
19504,327,460,461
19505,329,459,461
19506,335,460,463
19507,342,462,460
19508,350,459,461
19509,356,459,461
19510,364,458,461
19511,369,460,459
19512,373,460,460
19513,377,460,463
19514,380,460,460
19515,381,459,462
19516,380,457,462
19517,377,460,462
19518,373,460,462
19519,367,459,462
19520,360,460,461
19521,362,459,461
19522,359,460,461
19523,361,460,460
19524,366,459,462
19525,370,460,463
19526,374,459,463
19527,373,460,461
19528,374,459,460
19529,378,462,462
19530,381,458,460
19531,380,458,460
19532,385,462,461
19533,386,461,461
19534,390,459,461
19535,389,459,462
19536,391,459,460
19537,393,458,461
19538,391,459,462
19539,394,457,461
19540,394,460,461
19541,395,460,462
19542,397,461,459
19543,400,459,461
19544,406,460,460
19545,405,462,461
19546,402,459,460
19547,402,460,461
19548,402,460,459
19549,406,459,461
19550,409,459,462
19551,415,462,461
19552,416,460,459
19553,415,461,461
19554,414,459,457
19555,409,461,461
19556,405,460,461
19557,400,459,462
19558,395,460,462
19559,393,460,460
19560,394,459,462
19561,396,459,460
19562,398,460,461
19563,400,460,460
19564,406,461,461
19565,408,459,460
19566,409,462,460
19567,413,461,461
19568,415,460,460
19569,418,460,461
19570,417,459,462
19571,421,460,461
19572,422,458,460
19573,419,461,461
19574,409,459,461
19575,403,460,460
19576,396,460,462
19577,388,460,458
19578,383,460,461
19579,378,458,461
19580,375,460,460
19581,377,459,459
19582,377,460,461
19583,375,459,461
19584,379,460,460
19585,373,458,462
19586,370,458,461
19587,367,460,462
19588,372,460,462
19589,378,459,461
19590,388,460,461
19591,400,457,461
19592,409,459,461
19593,415,461,461
19594,422,459,461
19595,424,460,461
19596,427,459,461
19597,428,458,461
19598,427,460,461
19599,420,460,460
19600,415,460,461
19601,409,457,462
19602,403,460,461
19603,399,459,459
19604,399,458,461
19605,402,459,460
19606,408,457,461
19607,415,460,459
19608,425,460,460
19609,431,460,458
19610,438,460,462
19611,443,460,462
19612,446,462,461
19613,447,458,462
19614,444,461,462
19615,437,461,460
19616,431,459,458
19617,427,460,460
19618,424,461,461
19619,418,460,462
19620,416,460,462
19621,413,460,461
19622,412,461,461
19623,416,459,461
19624,420,459,465
19625,427,458,462
19626,431,459,462
19627,436,460,459
19628,440,460,462
19629,444,460,461
19630,444,459,461
19631,444,460,461
19632,441,460,462
19633,439,461,459
19634,436,457,460
19635,435,461,461
19636,430,459,462
19637,432,460,462
19638,428,457,461
19639,426,459,460
19640,424,460,462
19641,423,459,461
19642,425,460,460
19643,427,460,462
19644,429,462,461
19645,429,459,461
19646,430,460,461
19647,429,460,461
19648,429,462,462
19649,433,461,460
19650,434,460,462
19651,431,460,463
19652,426,462,459
19653,426,459,462
19654,426,459,461
19655,422,460,459
19656,421,461,461
19657,421,459,461
19658,420,460,462
19659,417,462,461
19660,409,460,460
19661,405,460,461
19662,403,459,462
19663,408,460,462
19664,413,460,460
19665,420,460,461
19666,424,459,462
19667,428,460,461
19668,429,459,459
19669,435,459,460
19670,444,460,461
19671,448,459,461
19672,457,461,460
19673,463,459,462
19674,469,459,461
19675,473,459,461
19676,476,461,459
19677,475,461,460
19678,478,461,462
19679,477,460,461
19680,483,458,462
19681,485,460,461
19682,483,460,459
19683,480,460,460
19684,472,459,460
19685,463,457,461
19686,455,459,462
19687,447,462,461
19688,442,461,459
19689,432,460,462
19690,430,460,460
19691,432,459,461
19692,438,460,461
19693,445,461,462
19694,454,458,460
19695,465,461,461
19696,475,460,461
19697,490,459,458
19698,504,460,459
19699,509,461,459
19700,515,460,462
19701,514,458,460
19702,512,461,462
19703,509,460,462
19704,505,461,462
19705,508,459,460
19706,510,459,461
19707,516,460,460
19708,523,461,461
19709,530,460,461
19710,532,460,460
19711,530,459,461
19712,530,461,462
19713,525,460,461
19714,519,461,461
19715,514,460,461
19716,509,460,462
19717,507,460,459
19718,501,458,462
19719,501,462,459
19720,502,460,458
19721,503,461,461
19722,506,459,462
19723,509,459,462
19724,512,458,461
19725,513,461,462
19726,515,462,459
19727,515,458,463
19728,510,458,460
19729,504,459,459
19730,499,460,461
19731,494,459,460
19732,500,459,462
19733,507,460,461
19734,514,460,458
19735,526,459,462
19736,530,457,460
19737,535,461,459
19738,536,460,461
19739,536,459,461
19740,537,457,459
19741,533,459,459
19742,533,456,460
19743,534,460,460
19744,533,459,461
19745,539,460,461
19746,544,459,462
19747,551,461,463
19748,555,461,460
19749,558,461,460
19750,558,459,462
19751,565,459,461
19752,568,461,460
19753,573,456,460
19754,575,460,461
19755,576,460,458
19756,578,460,461
19757,578,459,460
19758,580,460,460
19759,581,459,461
19760,581,460,460
19761,583,458,460
19762,585,460,460
19763,583,461,461
19764,584,460,461
19765,578,460,461
19766,579,460,461
19767,573,459,461
19768,570,462,460
19769,564,462,460
19770,560,460,462
19771,555,459,460
19772,548,458,461
19773,542,458,459
19774,534,461,461
19775,531,461,462
19776,530,460,459
19777,534,459,461
19778,531,459,459
19779,537,460,461
19780,539,459,462
19781,542,461,460
19782,544,459,461
19783,547,460,460
19784,547,461,462
19785,548,460,460
19786,547,460,461
19787,552,460,461
19788,554,459,461
19789,558,460,460
19790,560,458,461
19791,560,461,461
19792,558,459,460
19793,558,459,460
19794,553,460,459
19795,549,460,461
19796,543,458,462
19797,538,460,461
19798,532,461,459
19799,526,462,458
19800,523,460,461
19801,519,460,461
19802,519,461,459
19803,517,460,462
19804,518,460,460
19805,520,460,462
19806,520,459,462
19807,524,457,460
19808,524,461,460
19809,527,459,462
19810,528,460,462
19811,528,460,460
19812,528,458,460
19813,523,459,462
19814,522,461,460
19815,520,459,461
19816,516,459,461
19817,514,460,462
19818,510,458,460
19819,504,459,460
19820,499,460,461
19821,495,460,460
19822,491,459,462
19823,493,459,457
19824,493,461,460
19825,497,460,463
19826,496,459,462
19827,501,459,460
19828,504,461,461
19829,507,460,462
19830,508,459,461
19831,509,461,461
19832,508,459,461
19833,507,458,462
19834,508,460,461
19835,506,458,461
19836,505,459,461
19837,503,462,461
19838,502,460,460
19839,500,460,460
19840,502,460,461
19841,501,459,461
19842,499,458,460
19843,500,461,461
19844,497,461,460
19845,499,459,461
19846,500,460,461
19847,500,460,458
19848,503,460,461
19849,501,462,459
19850,504,460,459
19851,504,461,462
19852,507,459,461
19853,506,457,460
19854,509,458,462
19855,506,460,460
19856,505,459,460
19857,504,460,461
19858,502,459,463
19859,502,459,462
19860,499,459,461
19861,497,459,460
19862,492,460,461
19863,490,459,462
19864,488,458,459
19865,488,461,460
19866,485,460,459
19867,486,460,461
19868,484,461,460
19869,485,459,462
19870,486,458,461
19871,488,461,460
19872,488,460,461
19873,487,460,462
19874,485,461,460
19875,484,457,461
19876,482,460,461
19877,476,459,461
19878,473,459,462
19879,469,459,461
19880,466,458,460
19881,461,460,462
19882,459,460,462
19883,455,460,461
19884,454,459,462
19885,454,461,459
19886,454,462,461
19887,456,459,462
19888,459,460,460
19889,460,459,461
19890,456,460,461
19891,457,460,461
19892,456,457,460
19893,454,459,461
19894,453,461,461
19895,451,460,460
19896,450,460,461
19897,449,458,460
19898,448,459,461
19899,449,459,462
19900,445,460,460
19901,444,459,460
19902,444,460,458
19903,440,459,461
19904,440,460,460
19905,435,460,461
19906,430,459,464
19907,427,460,461
19908,424,460,459
19909,420,460,461
19910,425,460,461
19911,428,459,461
19912,431,460,461
19913,433,459,458
19914,433,460,461
19915,437,459,461
19916,438,459,459
19917,440,459,460
19918,437,459,461
19919,431,459,460
19920,432,458,462
19921,429,458,462
19922,427,457,462
19923,424,459,462
19924,426,460,461
19925,426,461,461
19926,426,457,461
19927,426,458,461
19928,426,460,461
19929,427,461,460
19930,426,459,462
19931,429,455,461
19932,428,460,460
19933,429,460,462
19934,428,462,461
19935,426,460,461
19936,427,461,462
19937,423,459,461
19938,420,460,462
19939,419,460,460
19940,418,460,459
19941,416,459,462
19942,414,458,461
19943,416,459,460
19944,415,460,462
19945,416,458,460
19946,415,460,460
19947,418,461,460
19948,418,460,462
19949,419,459,461
19950,422,461,460
19951,423,461,462
19952,422,460,459
19953,422,460,462
19954,419,460,459
19955,418,459,461
19956,416,458,462
19957,412,458,462
19958,409,457,460
19959,410,460,462
19960,406,460,459
19961,406,459,460
19962,405,460,462
19963,404,459,461
19964,403,459,461
19965,403,460,460
19966,403,458,460
