Time (ms),Bicep,Shoulder,Tricep
166996,466,461,460
166997,466,460,462
166998,465,459,462
166999,465,459,457
167000,466,460,461
167001,466,458,461
167002,466,459,462
167003,465,459,462
167004,462,461,461
167005,464,460,462
167006,462,460,460
167007,460,459,460
167008,460,459,462
167009,458,461,460
167010,456,459,462
167011,454,459,466
167012,457,460,462
167013,458,458,460
167014,462,459,460
167015,463,461,462
167016,465,459,462
167017,469,461,461
167018,474,461,460
167019,477,460,460
167020,478,460,461
167021,482,461,460
167022,484,459,460
167023,483,458,460
167024,483,461,460
167025,478,460,463
167026,476,461,460
167027,471,460,459
167028,470,460,460
167029,465,460,461
167030,459,460,460
167031,457,461,460
167032,454,461,460
167033,453,460,460
167034,455,459,461
167035,456,460,461
167036,455,460,459
167037,457,457,461
167038,460,459,463
167039,459,458,460
167040,465,460,461
167041,464,460,461
167042,467,459,460
167043,466,459,463
167044,467,460,462
167045,465,460,461
167046,465,459,459
167047,465,461,462
167048,464,461,462
167049,462,459,461
167050,463,458,462
167051,463,459,463
167052,462,457,461
167053,465,459,461
167054,469,460,461
167055,470,459,461
167056,473,458,460
167057,474,461,459
167058,477,458,462
167059,479,461,461
167060,480,460,462
167061,483,459,461
167062,482,460,460
167063,483,457,460
167064,484,461,462
167065,480,460,460
167066,479,459,460
167067,475,462,460
167068,476,459,461
167069,474,460,462
167070,473,458,462
167071,476,460,461
167072,475,458,462
167073,477,461,460
167074,476,460,461
167075,475,459,462
167076,475,459,461
167077,477,460,460
167078,477,459,460
167079,476,460,459
167080,475,459,461
167081,475,460,460
167082,471,460,460
167083,470,460,461
167084,469,460,461
167085,468,460,462
167086,465,461,461
167087,466,457,461
167088,467,460,462
167089,467,459,461
167090,470,456,460
167091,471,458,461
167092,472,460,461
167093,470,460,462
167094,473,461,460
167095,476,459,461
167096,473,461,461
167097,478,461,461
167098,477,459,460
167099,479,461,461
167100,475,459,462
167101,475,460,460
167102,475,459,460
167103,477,461,461
167104,479,459,461
167105,480,460,461
167106,481,458,460
167107,479,459,458
167108,479,459,461
167109,479,459,462
167110,477,460,461
167111,476,459,462
167112,477,459,461
167113,478,458,460
167114,475,460,461
167115,476,460,460
167116,475,459,462
167117,476,462,461
167118,475,460,463
167119,476,460,459
167120,475,458,461
167121,476,460,458
167122,475,459,462
167123,475,460,458
167124,473,460,462
167125,471,459,462
167126,470,461,460
167127,466,461,461
167128,462,459,462
167129,460,460,461
167130,459,459,462
167131,454,460,462
167132,455,461,460
167133,455,458,462
167134,455,460,460
167135,452,460,462
167136,455,461,460
167137,454,459,460
167138,459,460,462
167139,458,458,462
167140,459,459,461
167141,459,460,463
167142,462,459,461
167143,459,459,458
167144,461,458,461
167145,463,459,462
167146,465,459,461
167147,467,460,462
167148,472,460,461
167149,472,459,460
167150,472,460,460
167151,476,458,461
167152,479,459,462
167153,481,461,461
167154,483,459,462
167155,485,458,461
167156,489,460,461
167157,493,458,461
167158,494,460,462
167159,496,459,462
167160,495,458,462
167161,496,461,461
167162,496,459,460
167163,497,460,462
167164,496,460,460
167165,500,460,461
167166,497,461,459
167167,497,461,461
167168,494,461,458
167169,495,459,460
167170,490,460,461
167171,490,460,461
167172,483,460,460
167173,486,459,461
167174,487,460,461
167175,490,461,461
167176,490,458,459
167177,494,460,463
167178,496,459,461
167179,497,460,462
167180,498,459,463
167181,495,460,463
167182,500,460,462
167183,502,461,461
167184,502,458,460
167185,501,461,461
167186,497,457,461
167187,493,460,461
167188,486,461,464
167189,481,460,455
167190,478,460,462
167191,474,460,462
167192,472,459,460
167193,468,460,462
167194,468,459,461
167195,467,458,462
167196,465,460,459
167197,465,460,461
167198,469,460,462
167199,469,460,462
167200,473,460,462
167201,477,460,461
167202,484,458,460
167203,492,458,460
167204,503,459,461
167205,515,461,461
167206,520,459,461
167207,522,460,460
167208,526,460,463
167209,528,460,460
167210,527,459,460
167211,525,459,462
167212,523,459,461
167213,519,459,462
167214,516,460,462
167215,508,460,461
167216,507,461,462
167217,505,460,462
167218,499,460,462
167219,498,461,461
167220,494,461,462
167221,488,461,462
167222,485,460,461
167223,481,461,461
167224,479,460,461
167225,475,459,461
167226,473,461,462
167227,469,460,460
167228,465,462,460
167229,463,461,461
167230,461,460,461
167231,457,461,461
167232,454,460,461
167233,450,460,458
167234,450,461,461
167235,449,460,460
167236,450,459,461
167237,452,460,460
167238,451,460,461
167239,456,459,460
167240,458,460,462
167241,460,460,460
167242,463,458,461
167243,462,459,461
167244,463,460,459
167245,461,460,459
167246,460,460,460
167247,461,462,462
167248,457,460,463
167249,453,459,461
167250,450,460,461
167251,449,459,461
167252,447,459,461
167253,445,458,462
167254,444,459,462
167255,444,460,461
167256,447,459,461
167257,448,460,462
167258,456,460,462
167259,460,460,460
167260,465,460,460
167261,472,459,461
167262,473,461,461
167263,481,460,461
167264,483,459,459
167265,490,457,461
167266,495,458,461
167267,498,458,461
167268,505,460,463
167269,513,458,461
167270,517,460,459
167271,520,457,461
167272,521,460,462
167273,522,459,462
167274,516,460,460
167275,516,462,459
167276,510,459,463
167277,506,460,461
167278,500,459,461
167279,497,461,461
167280,497,460,463
167281,490,460,459
167282,489,460,462
167283,486,461,461
167284,484,461,461
167285,484,460,460
167286,477,459,462
167287,479,460,461
167288,476,459,461
167289,478,456,461
167290,477,459,463
167291,477,460,460
167292,478,460,459
167293,484,460,462
167294,489,461,461
167295,490,456,462
167296,491,459,461
167297,494,461,460
167298,494,460,460
167299,492,460,462
167300,489,457,461
167301,483,460,460
167302,482,458,461
167303,481,459,461
167304,480,459,461
167305,478,458,460
167306,475,461,462
167307,473,457,462
167308,471,460,461
167309,468,459,461
167310,464,457,461
167311,464,460,459
167312,461,460,463
167313,465,461,462
167314,470,460,460
167315,477,462,463
167316,481,460,460
167317,487,461,462
167318,492,459,461
167319,494,460,463
167320,496,460,462
167321,500,460,462
167322,502,460,462
167323,504,458,459
167324,501,459,460
167325,500,460,462
167326,497,461,462
167327,494,459,462
167328,492,460,461
167329,489,459,462
167330,487,459,461
167331,484,457,461
167332,483,457,461
167333,481,460,459
167334,476,458,461
167335,475,458,462
167336,473,460,459
167337,473,460,462
167338,476,459,460
167339,476,457,462
167340,481,460,462
167341,483,461,461
167342,487,459,460
167343,485,461,462
167344,487,460,461
167345,486,458,461
167346,481,460,461
167347,476,459,461
167348,469,460,460
167349,461,460,461
167350,455,460,461
167351,456,460,461
167352,454,458,461
167353,455,459,462
167354,457,460,461
167355,461,460,460
167356,463,460,459
167357,467,462,461
167358,469,461,461
167359,475,460,460
167360,479,460,461
167361,480,460,460
167362,485,461,460
167363,485,459,459
167364,487,460,461
167365,485,461,460
167366,487,461,462
167367,485,458,461
167368,479,459,461
167369,471,460,461
167370,464,459,462
167371,459,460,460
167372,457,460,460
167373,455,460,462
167374,458,460,461
167375,460,458,460
167376,463,461,460
167377,468,459,462
167378,473,459,461
167379,476,459,461
167380,477,460,461
167381,474,460,462
167382,470,460,461
167383,468,462,459
167384,466,459,461
167385,461,460,461
167386,460,461,460
167388,464,461,461
167389,465,459,458
167390,465,458,460
167391,463,461,461
167392,463,458,460
167393,458,459,461
167394,456,460,460
167394,456,460,460
167395,456,460,459
167396,455,459,459
167397,455,459,459
167398,456,460,461
167399,459,459,462
167400,459,460,460
167401,463,459,460
167402,468,460,461
167403,473,460,460
167404,474,462,458
167405,477,459,460
167406,478,461,460
167407,477,461,460
167408,483,459,462
167409,486,460,460
167410,486,460,460
167411,488,460,461
167412,489,459,462
167413,488,459,461
167414,484,460,459
167415,484,459,461
167416,481,463,461
167417,478,459,458
167418,476,457,460
167419,474,460,461
167420,476,460,462
167421,475,458,461
167422,475,457,461
167423,476,459,461
167424,477,460,461
167425,480,460,459
167426,482,461,461
167427,483,459,459
167428,481,458,460
167429,479,461,461
167430,473,462,462
167431,468,460,461
167432,459,458,461
167433,451,460,461
167434,448,458,460
167435,445,459,461
167436,443,459,459
167437,444,460,459
167438,448,461,461
167439,454,460,462
167440,460,456,460
167441,465,460,460
167442,467,460,460
167443,468,460,458
167444,469,459,459
167445,468,460,460
167446,466,460,460
167447,465,459,461
167448,461,462,461
167449,458,457,459
167450,456,460,460
167451,453,460,458
167452,454,458,459
167453,452,458,460
167454,452,461,461
167455,451,458,461
167456,451,457,461
167457,451,460,458
167458,448,460,462
167459,452,459,461
167460,448,460,460
167461,454,459,459
167462,460,459,458
167463,465,460,461
167464,472,459,460
167465,474,459,459
167466,476,461,461
167467,473,460,462
167468,469,461,460
167469,463,459,460
167470,456,460,461
167471,448,459,460
167472,441,460,461
167473,432,460,459
167474,430,460,461
167475,427,459,458
167476,426,460,458
167477,430,458,460
167478,434,458,459
167479,442,459,462
167480,447,460,459
167481,453,459,461
167482,453,457,460
167483,454,459,459
167484,452,460,461
167485,451,458,460
167486,451,459,461
167487,451,458,462
167488,451,460,462
167489,450,461,462
167490,450,459,460
167491,443,460,461
167492,435,460,462
167493,425,460,462
167494,420,459,461
167495,415,460,461
167496,420,460,462
167497,425,459,462
167498,434,460,461
167499,442,459,460
167500,450,460,461
167501,457,462,461
167502,461,460,463
167503,465,460,462
167504,465,460,462
167505,466,457,462
167506,463,458,461
167507,458,456,460
167508,454,461,459
167509,453,460,461
167510,453,461,461
167511,454,460,460
167512,454,459,460
167513,450,459,462
167514,445,461,461
167515,443,459,462
167516,439,460,461
167517,437,458,462
167518,432,460,462
167519,426,458,460
167520,422,460,459
167521,423,459,462
167522,421,459,462
167523,421,459,462
167524,423,460,461
167525,427,461,462
167526,432,461,461
167527,433,459,462
167528,438,459,462
167529,438,461,462
167530,442,459,459
167531,444,460,461
167532,448,458,460
167533,451,459,462
167534,451,460,460
167535,451,461,462
167536,451,461,461
167537,450,457,461
167538,452,460,462
167539,455,460,461
167540,453,460,461
167541,455,462,462
167542,454,460,461
167543,455,460,460
167544,457,461,461
167545,461,460,461
167546,463,460,462
167547,467,459,461
167548,466,461,461
167549,468,461,460
167550,468,460,460
167551,463,460,460
167552,459,460,461
167553,456,460,460
167554,456,460,462
167555,462,460,461
167556,463,459,461
167557,469,459,462
167558,470,459,462
167559,470,460,461
167560,474,457,460
167561,473,462,462
167562,474,460,460
167563,473,459,460
167564,470,459,462
167565,469,460,461
167566,467,457,461
167567,467,460,460
167568,467,459,462
167569,465,460,461
167570,467,460,460
167571,466,459,462
167572,468,460,461
167573,467,456,461
167574,466,460,462
167575,465,461,459
167576,465,461,460
167577,464,459,462
167578,467,460,462
167579,467,460,460
167580,466,460,461
167581,466,458,462
167582,470,460,460
167583,471,459,461
167584,473,460,461
167585,476,459,462
167586,476,460,460
167587,479,461,461
167588,480,458,461
167589,479,460,461
167590,479,460,461
167591,475,461,460
167592,472,460,461
167593,468,458,459
167594,467,459,461
167595,466,459,460
167596,464,459,462
167597,462,459,463
167598,465,458,461
167599,467,460,460
167600,467,458,460
167601,465,459,463
167602,461,459,461
167603,455,461,461
167604,454,461,461
167605,451,459,461
167606,446,459,462
167607,447,460,461
167608,441,460,461
167609,437,458,462
167610,437,459,463
167611,437,459,461
167612,441,461,461
167613,443,460,460
167614,450,459,460
167615,452,462,460
167616,455,459,463
167617,457,460,460
167618,456,460,461
167619,461,460,462
167620,465,460,461
167621,468,460,462
167622,474,460,460
167623,475,461,461
167624,480,459,461
167625,484,460,462
167626,487,459,460
167627,485,459,461
167628,483,459,459
167629,481,460,461
167630,480,460,462
167631,476,460,462
167632,471,459,461
167633,465,457,461
167634,460,461,460
167635,452,459,461
167636,451,460,462
167637,450,461,462
167638,450,458,461
167639,449,459,460
167640,449,460,461
167641,451,457,460
167642,450,460,460
167643,449,460,463
167644,449,461,462
167645,445,457,460
167646,438,460,462
167647,430,459,462
167648,425,461,461
167649,421,460,462
167650,427,459,460
167651,432,459,462
167652,437,460,463
167653,442,461,459
167654,447,460,460
167655,456,460,462
167656,459,460,461
167657,460,460,462
167658,472,459,460
167659,470,460,461
167660,474,457,462
167661,477,460,461
167662,479,458,462
167663,480,460,460
167664,479,460,461
167665,479,460,463
167666,479,459,461
167667,478,460,462
167668,479,459,462
167669,478,461,459
167670,476,459,460
167671,475,459,462
167672,476,460,459
167673,477,459,462
167674,474,459,461
167675,472,458,461
167676,471,459,462
167677,471,460,462
167678,471,458,461
167679,473,461,462
167680,472,460,461
167681,469,460,462
167682,467,459,461
167683,467,460,459
167684,466,460,461
167685,465,458,462
167686,466,461,458
167687,461,461,459
167688,456,460,462
167689,455,460,462
167690,451,459,458
167691,449,460,461
167692,447,460,462
167693,450,461,459
167694,446,460,460
167695,445,461,461
167696,444,461,460
167697,442,458,461
167698,444,462,460
167699,446,459,462
167700,447,461,462
167701,448,461,462
167702,451,459,460
167703,455,460,460
167704,457,460,461
167705,457,460,461
167706,457,460,460
167707,457,460,462
167708,458,462,461
167709,457,460,459
167710,453,461,459
167711,448,458,462
167712,444,458,459
167713,440,462,462
167714,441,460,460
167715,441,460,461
167716,446,460,460
167717,447,459,462
167718,447,461,461
167719,450,462,462
167720,452,460,460
167721,454,458,461
167722,454,461,463
167723,452,461,460
167724,450,460,462
167725,445,460,462
167726,444,460,459
167727,448,458,461
167728,454,459,461
167729,458,459,459
167730,458,460,460
167731,455,460,457
167732,455,461,461
167733,451,460,462
167734,445,459,458
167735,442,462,457
167736,442,461,461
167737,445,459,462
167738,444,460,461
167739,450,460,460
167740,455,458,461
167741,455,460,462
167742,463,461,460
167743,464,460,462
167744,464,461,460
167745,461,461,457
167746,463,460,460
167747,458,461,461
167748,457,460,461
167749,456,459,459
167750,457,455,459
167751,457,462,461
167752,458,459,460
167753,458,460,459
167754,456,460,460
167755,454,461,462
167756,446,460,460
167757,434,460,460
167758,429,460,458
167759,431,461,461
167760,428,460,461
167761,430,460,462
167762,433,459,458
167763,440,460,460
167764,448,459,463
167765,450,461,462
167766,454,462,460
167767,457,459,462
167768,461,461,460
167769,464,461,461
167770,464,460,461
167771,462,457,461
167772,460,459,462
167773,450,460,459
167774,443,460,460
167775,436,461,461
167776,431,460,462
167777,426,459,459
167778,423,461,461
167779,422,460,462
167780,418,460,461
167781,418,460,461
167782,418,461,461
167783,421,461,461
167784,430,458,462
167785,436,460,462
167786,444,460,462
167787,449,460,461
167788,452,460,461
167789,458,456,460
167790,464,461,462
167791,468,458,461
167792,465,457,461
167793,467,459,460
167794,464,459,462
167795,454,460,462
167796,444,461,460
167797,436,461,461
167798,437,461,458
167799,438,461,462
167800,443,461,460
167801,447,460,461
167802,454,461,461
167803,461,459,461
167804,475,460,461
167805,485,460,462
167806,492,458,462
167807,492,460,461
167808,492,460,461
167809,482,459,461
167810,478,460,461
167811,472,459,461
167812,465,460,460
167813,463,460,461
167814,461,460,461
167815,469,458,462
167816,463,460,461
167817,466,460,461
167818,469,460,461
167819,472,460,463
167820,477,460,461
167821,482,460,460
167822,486,458,462
167823,489,461,462
167824,489,460,458
167825,491,460,461
167826,494,460,462
167827,493,459,461
167828,495,460,461
167829,494,460,462
167830,493,460,461
167831,492,459,462
167832,488,459,461
167833,482,460,458
167834,477,460,462
167835,470,460,461
167836,463,460,462
167837,465,461,459
167838,471,460,460
167839,475,461,460
167840,476,462,461
167841,470,460,461
167842,461,459,460
167843,448,460,460
167844,440,461,462
167845,431,460,460
167846,423,462,461
167847,417,457,460
167848,416,460,462
167849,419,460,460
167850,428,459,461
167851,441,458,459
167852,454,461,459
167853,463,460,461
167854,471,461,461
167855,477,460,460
167856,487,460,458
167857,498,461,462
167858,504,459,462
167859,507,460,461
167860,514,460,461
167861,516,459,459
167862,513,460,458
167863,506,460,461
167864,499,462,460
167865,490,456,461
167866,480,457,462
167867,470,461,462
167868,454,461,462
167869,439,461,460
167870,429,460,462
167871,424,459,462
167872,423,460,460
167873,427,459,461
167874,433,460,461
167875,441,461,460
167876,445,460,461
167877,449,461,460
167878,454,460,460
167879,455,458,461
167880,456,461,460
167881,458,459,461
167882,460,460,461
167883,458,459,461
167884,450,459,462
167885,443,462,461
167886,435,456,460
167887,430,460,461
167888,428,460,461
167889,428,461,459
167890,434,461,459
167891,436,459,458
167892,442,459,461
167893,448,460,462
167894,455,460,460
167895,458,461,461
167896,457,466,462
167897,460,461,462
167898,460,459,462
167899,464,459,464
167900,470,457,462
167901,478,460,460
167902,483,459,461
167903,487,462,462
167904,491,458,461
167905,493,460,461
167906,497,461,462
167907,497,461,460
167908,497,462,461
167909,495,463,460
167910,489,461,459
167911,483,459,461
167912,475,460,461
167913,471,459,461
167914,467,460,461
167915,466,460,459
167916,467,459,459
167917,466,460,460
167918,463,460,460
167919,461,460,460
167920,465,460,462
167921,466,461,461
167922,470,459,461
167923,471,462,460
167924,473,459,460
167925,476,458,461
167926,476,459,461
167927,480,460,461
167928,479,461,461
167929,484,460,460
167930,482,460,460
167931,483,460,459
167932,483,458,459
167933,481,458,461
167934,480,460,462
167935,475,461,460
167936,473,460,462
167937,469,460,462
167938,464,462,461
167939,465,460,461
167940,467,459,463
167941,469,460,460
167942,469,458,461
167943,467,461,461
167944,464,459,462
167945,461,460,461
167946,457,460,460
167947,455,460,459
167948,460,460,459
167949,461,458,462
167950,464,460,464
167951,466,458,461
167952,467,461,460
167953,469,461,461
167954,471,460,462
167955,473,460,461
167956,475,460,460
167957,480,460,460
167958,483,461,463
167959,486,461,459
167960,489,461,461
167961,490,459,462
167962,492,461,462
167963,491,460,461
167964,488,462,459
167965,486,461,462
167966,481,457,459
167967,477,459,462
167968,472,460,459
167969,472,459,461
167970,469,460,462
167971,468,460,460
167972,470,461,461
167973,470,461,461
167974,471,461,462
167975,475,460,461
167976,476,459,460
167977,480,460,457
167978,482,460,461
167979,482,459,462
167980,485,458,462
167981,485,459,460
167982,486,458,460
167983,486,461,460
167984,486,459,461
167985,484,458,461
167986,480,458,460
167987,476,459,462
167988,471,459,459
167989,467,457,460
167990,460,459,462
167991,459,460,462
167992,454,459,461
167993,454,460,461
167994,454,460,462
167995,455,459,461
167996,456,460,461
167997,461,459,461
167998,461,460,461
167999,462,460,461
168000,466,460,459
168001,470,459,462
168002,470,462,463
168003,471,459,463
168004,472,460,460
168005,470,460,462
168006,469,459,460
168007,464,461,462
168008,462,459,461
168009,459,461,461
168010,455,459,461
168011,453,460,460
168012,452,459,461
168013,451,457,460
168014,452,459,462
168015,450,461,461
168016,451,459,460
168017,452,459,461
168018,451,459,460
168019,454,460,461
168020,455,459,462
168021,455,460,461
168022,456,461,460
168023,456,462,460
168024,454,459,461
168025,453,461,462
168026,451,460,460
168027,445,459,460
168028,437,460,460
168029,433,460,462
168030,433,459,462
168031,427,459,461
168032,424,459,461
168033,420,459,462
168034,414,459,461
168035,413,461,459
168036,415,459,461
168037,418,460,462
168038,422,460,460
168039,428,460,461
168040,431,459,461
168041,435,459,461
168042,438,458,461
168043,437,459,462
168044,437,460,462
168045,434,461,460
168046,430,460,462
168047,430,461,462
168048,426,458,462
168049,424,460,460
168050,420,460,459
168051,420,460,461
168052,417,459,460
168053,417,460,462
168054,419,459,461
168055,419,460,459
168056,420,460,462
168057,423,458,461
168058,422,460,462
168059,426,460,462
168060,428,459,459
168061,433,458,461
168062,437,459,460
168063,439,460,460
168064,441,461,461
168065,444,459,462
168066,443,460,461
168067,443,461,461
168068,442,460,461
168069,439,460,460
168070,436,460,461
168071,431,459,462
168072,430,458,462
168073,427,460,461
168074,425,459,461
168075,425,459,462
168076,426,459,461
168077,429,461,461
168078,433,459,461
168079,436,461,462
168080,441,460,461
168081,445,460,461
168082,450,460,460
168083,452,460,463
168084,454,460,462
168085,450,461,462
168086,450,458,460
168087,448,459,464
168088,442,461,460
168089,435,461,460
168090,429,459,462
168091,423,460,461
168092,421,460,461
168093,420,460,461
168094,422,460,460
168095,426,460,461
168096,430,459,462
168097,435,462,458
168098,437,461,462
168099,445,459,461
168100,452,461,462
168101,456,460,462
168102,458,462,460
168103,462,460,461
168104,464,461,462
168105,464,460,461
168106,464,460,459
168107,464,460,461
168108,463,461,459
168109,461,460,465
168110,461,461,460
168111,459,460,458
168112,462,459,460
168113,462,460,461
168114,463,461,459
168115,465,460,460
168116,468,459,461
168117,468,459,460
168118,472,461,462
168119,473,459,460
168120,476,460,460
168121,483,459,461
168122,483,461,461
168123,487,460,462
168124,490,459,460
168125,488,461,458
168126,490,457,460
168127,488,459,461
168128,485,458,460
168129,484,461,461
168130,481,459,460
168131,480,460,460
168132,480,460,461
168133,475,460,460
168134,474,460,460
168135,473,457,460
168136,471,464,460
168137,476,459,460
168138,480,460,462
168139,484,460,461
168140,490,458,461
168141,495,458,461
168142,498,460,460
168143,503,460,461
168144,504,459,462
168145,504,460,460
168146,504,460,462
168147,502,460,461
168148,498,460,461
168149,494,460,458
168150,494,460,461
168151,492,458,461
168152,489,460,460
168153,490,459,461
168154,490,460,459
168155,493,461,466
168156,495,461,461
168157,498,460,462
168158,504,460,459
168159,508,458,460
168160,509,460,460
168161,512,461,462
168162,510,459,461
168163,510,460,462
168164,509,459,461
168165,506,461,458
168166,504,460,459
168167,502,460,458
168168,501,459,461
168169,500,461,461
168170,497,460,462
168171,496,459,461
168172,494,459,461
168173,492,459,462
168174,494,459,460
168175,494,460,461
168176,497,459,460
168177,500,459,461
168178,502,459,459
168179,505,458,459
168180,507,459,460
168181,509,460,460
168182,511,459,461
168183,512,460,462
168184,511,459,461
168185,509,461,461
168186,505,461,461
168187,501,458,463
168188,499,460,462
168189,496,459,460
168190,490,459,461
168191,488,462,461
168192,487,459,461
168193,487,460,461
168194,482,460,458
168195,486,459,461
168196,487,458,461
168197,487,459,461
168198,489,459,459
168199,492,458,461
168200,493,459,458
168201,495,459,461
168202,497,457,462
168203,499,460,460
168204,501,459,461
168205,499,458,462
168206,500,457,462
168207,494,460,461
168208,492,462,458
168209,491,459,462
168210,493,459,462
168211,491,460,462
168212,489,460,462
168213,489,460,461
168214,490,461,462
168215,493,460,461
168216,495,460,462
168217,498,460,457
168218,502,460,463
168219,506,461,462
168220,509,460,460
168221,512,460,462
168222,517,458,461
168223,517,461,463
168224,522,460,462
168225,521,461,461
168226,521,460,462
168227,521,461,462
168228,516,461,461
168229,512,460,459
168230,514,460,461
168231,507,459,461
168232,507,460,462
168233,506,460,460
168234,507,459,462
168235,508,459,462
168236,512,459,463
168237,514,461,463
168238,518,459,460
168239,519,462,462
168240,521,460,462
168241,522,460,460
168242,525,459,462
168243,525,462,461
168244,526,460,461
168245,524,461,461
168246,521,460,459
168247,521,460,462
168248,519,459,462
168249,517,460,461
168250,517,460,462
168251,516,459,462
168252,515,460,460
168253,514,460,461
168254,514,462,461
168255,515,461,462
168256,516,459,461
168257,520,458,461
168258,519,460,462
168259,521,460,464
168260,521,461,460
168261,524,459,462
168262,526,462,460
168263,527,458,461
168264,527,460,461
168265,526,459,462
168266,524,459,464
168267,524,459,461
168268,526,461,461
168269,527,458,461
168270,524,459,462
168271,527,460,462
168272,528,459,462
168273,530,460,462
168274,531,459,461
168275,535,461,462
168276,536,461,461
168277,540,460,459
168278,544,464,460
168279,547,459,459
168280,550,461,459
168281,554,459,462
168282,557,460,462
168283,558,460,461
168284,558,460,462
168285,557,462,462
168286,558,459,462
168287,555,460,461
168288,553,460,462
168289,551,459,463
168290,549,460,462
168291,548,461,462
168292,544,460,459
168293,545,459,462
168294,544,460,460
168295,543,460,461
168296,541,460,460
168297,543,459,461
168298,543,461,459
168299,545,460,460
168300,547,457,461
168301,548,458,461
168302,550,460,462
168303,549,461,462
168304,547,459,462
168305,543,459,461
168306,540,460,461
168307,535,457,462
168308,530,460,462
168309,524,460,463
168310,519,460,462
168311,512,462,461
168312,508,459,462
168313,503,457,462
168314,497,460,462
168315,497,461,463
168316,491,458,461
168317,487,460,462
168318,484,459,463
168319,478,458,462
168320,473,460,460
168321,465,459,463
168322,457,460,462
168323,447,460,461
168324,446,459,462
168325,441,461,462
168326,436,459,461
168327,430,461,460
168328,425,458,461
168329,421,460,461
168330,419,460,460
168331,419,461,461
168332,419,461,459
168333,422,460,462
168334,428,460,462
168335,432,461,460
168336,437,459,462
168337,442,461,458
168338,447,460,461
168339,451,460,460
168340,456,462,461
168341,458,458,461
168342,458,461,462
168343,460,460,461
168344,460,460,459
168345,462,462,461
168346,462,460,462
168347,461,460,460
168348,458,460,462
168349,454,459,462
168350,453,461,462
168351,454,458,462
168352,455,458,461
168353,455,458,462
168354,458,460,462
168355,460,460,463
168356,465,459,462
168357,471,459,462
168358,473,461,462
168359,481,461,462
168360,487,460,462
168361,494,460,458
168362,498,460,459
168363,504,460,462
168364,506,460,462
168365,507,461,461
168366,509,460,461
168367,509,459,462
168368,507,460,462
168369,508,459,462
168370,506,459,462
168371,507,460,460
168372,504,460,462
168373,505,460,461
168374,509,461,461
168375,514,461,460
168376,518,460,460
168377,524,458,461
168378,528,459,461
168379,532,464,460
168380,537,460,463
168381,541,458,461
168382,544,460,461
168383,548,461,461
168384,548,459,460
168385,546,459,461
168386,549,460,460
168387,550,460,461
168388,548,460,459
168389,548,461,461
168390,547,461,461
168391,546,460,461
168392,544,462,461
168393,547,460,460
168394,547,461,460
168395,548,460,461
168396,550,460,461
168397,551,460,461
168398,552,461,459
168399,555,457,462
168400,562,460,458
168401,556,460,461
168402,556,460,461
168403,559,460,461
168404,557,461,463
168405,557,460,461
168406,555,459,462
168407,553,461,461
168408,551,461,461
168409,546,460,459
168410,544,461,461
168411,540,461,462
168412,537,459,461
168413,536,459,461
168414,534,460,462
168415,534,459,460
168416,530,462,463
168417,532,460,462
168418,534,462,460
168419,532,459,462
168420,530,460,459
168421,529,461,461
168422,530,460,462
168423,530,461,461
168424,529,460,461
168425,526,460,462
168426,523,461,461
168427,520,460,461
168428,518,462,460
168429,515,460,463
168430,510,460,463
168431,511,460,461
168432,504,460,463
168433,506,460,462
168434,503,460,461
168435,504,459,461
168436,503,461,461
168437,503,462,458
168438,502,460,459
168439,501,460,462
168440,501,459,462
168441,500,460,462
168442,500,461,462
168443,501,459,464
168444,502,461,460
168445,500,459,460
168446,499,459,462
168447,497,457,462
168448,496,461,462
168449,495,459,461
168450,493,461,461
168451,493,459,461
168452,494,460,461
168453,494,459,462
168454,495,458,461
168455,497,461,461
168456,499,459,461
168457,499,460,462
168458,499,459,462
168459,503,462,460
168460,505,463,461
168461,507,462,460
168462,508,461,461
168463,508,459,460
168464,510,460,461
168465,512,462,462
168466,510,460,462
168467,510,461,463
168468,508,461,458
168469,506,461,459
168470,506,461,461
168471,505,459,460
168472,502,460,462
168473,498,460,461
168474,500,460,461
168475,498,460,462
168476,497,460,459
168477,497,458,462
168478,498,460,461
168479,498,461,463
168480,500,462,462
168481,496,460,462
168482,494,460,462
168483,495,460,460
168484,493,459,461
168485,489,458,461
168486,486,461,460
168487,484,459,461
168488,479,459,461
168489,472,461,462
168490,471,461,462
168491,463,461,463
168492,463,459,461
168493,460,460,462
168494,458,458,462
168495,457,460,462
168496,451,461,461
168497,451,459,461
168498,452,460,462
168499,449,462,462
168500,451,460,462
168501,450,460,462
168502,450,458,461
168503,448,457,461
168504,447,458,460
168505,446,460,461
168506,443,460,463
168507,439,461,461
168508,435,460,461
168509,431,461,462
168510,429,459,461
168511,427,461,462
168512,424,462,462
168513,422,456,461
168514,421,460,462
168515,425,460,462
168516,421,459,461
168517,424,458,460
168518,425,460,461
168519,426,460,460
168520,431,459,462
168521,433,460,460
168522,432,459,463
168523,436,461,460
168524,436,459,462
168525,434,460,461
168526,434,461,460
168527,430,459,461
168528,429,460,460
168529,425,460,460
168530,424,460,462
168531,421,460,461
168532,420,459,463
168533,416,460,461
168534,420,460,461
168535,419,460,460
168536,419,460,460
168537,420,460,461
168538,424,460,461
168539,426,460,461
168540,427,459,462
168541,428,460,459
168542,428,458,464
168543,430,459,461
168544,432,460,461
168545,430,461,462
168546,429,460,460
168547,426,460,457
168548,425,460,463
168549,421,459,462
168550,422,459,461
168551,421,461,462
168552,419,460,459
168553,417,461,461
168554,415,460,462
168555,417,459,461
168556,421,459,461
168557,422,460,461
168558,426,462,461
168559,430,460,461
168560,433,459,461
168561,438,461,461
168562,440,460,461
168563,443,459,461
168564,444,458,462
168565,444,462,462
168566,448,461,462
168567,448,459,462
168568,449,459,462
168569,452,461,462
168570,444,461,460
168571,446,460,462
168572,446,460,462
168573,445,460,462
168574,446,457,463
168575,448,462,460
168576,447,461,461
168577,451,461,459
168578,455,460,460
168579,458,460,461
168580,460,459,459
168581,463,461,461
168582,468,460,460
168583,469,461,463
168584,472,459,461
168585,473,461,459
168586,471,461,459
168587,472,460,459
168588,474,459,462
168589,474,459,462
168590,473,461,458
168591,475,460,461
168592,477,461,462
168593,474,461,458
168594,473,461,458
168595,473,461,462
168596,471,461,458
168597,471,461,462
168598,473,460,461
168599,477,459,461
168600,479,458,462
168601,482,460,459
168602,483,461,460
168603,486,461,461
168604,489,459,461
168605,489,460,461
168606,488,459,461
168607,486,460,462
168608,485,461,460
168609,482,460,460
168610,479,460,459
168611,481,460,461
168612,479,457,462
168613,478,460,461
168614,481,460,462
168615,481,460,459
168616,482,460,460
168617,483,461,462
168618,485,460,459
168619,486,460,461
168620,486,460,460
168621,486,458,459
168622,484,460,461
168623,485,460,460
168624,486,460,461
168625,484,462,460
168626,489,459,461
168627,488,460,461
168628,491,459,461
168629,488,462,461
168630,486,462,462
168631,484,460,461
168632,478,459,461
168633,479,459,461
168634,475,459,460
168635,475,460,460
168636,473,459,460
168637,472,461,458
168638,474,460,460
168639,478,460,463
168640,479,461,460
168641,480,457,460
168642,481,460,461
168643,479,460,460
168644,480,460,463
168645,475,460,461
168646,476,460,460
168647,472,461,461
168648,471,461,461
168649,465,461,460
168650,464,460,460
168651,463,459,459
168652,463,458,460
168653,464,460,462
168654,463,459,462
168655,465,459,463
168656,467,460,460
168657,469,460,461
168658,470,460,461
168659,470,460,461
168662,466,460,461
168663,462,460,460
168664,462,459,462
168665,458,460,461
168665,457,459,460
168666,452,458,461
168667,447,460,460
168668,445,460,463
168669,443,459,461
168670,442,460,462
168671,439,461,462
168672,436,460,461
168672,434,460,462
168673,431,461,461
168674,430,460,461
168675,433,459,463
168676,432,460,461
168677,433,460,460
168678,431,461,462
168679,432,460,461
168680,436,459,460
168681,438,459,461
168682,438,460,462
168683,441,460,461
168684,444,459,461
168685,443,460,461
168686,442,461,463
168687,443,460,461
168688,442,461,458
168689,439,460,460
168690,435,460,461
168691,430,459,462
168692,427,461,462
168693,418,460,461
168694,420,459,462
168695,415,460,463
168696,416,459,460
168697,413,460,461
168698,415,460,462
168699,413,461,462
168700,414,459,462
168701,415,458,462
168702,413,459,460
168703,413,460,460
168704,413,456,461
168705,412,462,460
168706,412,460,462
168707,411,460,461
168708,413,460,461
168709,415,459,461
168710,415,459,461
168711,416,460,461
168712,414,461,463
168713,414,459,462
168714,413,460,461
168715,413,459,460
168716,412,460,463
168717,406,460,461
168718,405,460,461
168719,403,461,460
168720,401,460,461
168721,399,459,460
168722,400,458,461
168723,399,459,462
168724,397,459,462
168725,396,451,460
168726,394,460,463
168727,393,459,461
168728,389,459,460
168729,388,459,461
168730,386,459,461
168731,383,461,461
168732,383,460,462
168733,384,461,460
168734,383,460,460
168735,381,459,461
168736,381,460,460
168737,382,460,462
168738,382,458,462
168739,382,460,458
168740,383,461,459
168741,383,457,461
168742,382,459,462
168743,381,458,461
168744,383,459,461
168745,382,460,460
168746,378,458,461
168747,378,459,461
168748,375,460,462
168749,374,459,461
168750,372,460,462
168751,369,460,461
168752,368,460,461
168753,368,460,462
168754,367,459,460
168755,366,460,462
168756,367,460,461
168757,367,459,460
168758,368,457,461
168759,370,459,459
168760,370,460,461
168761,372,459,461
168762,373,460,461
168763,376,459,461
168764,375,457,460
168765,375,461,462
168766,376,460,461
168767,375,459,461
168768,371,461,460
168769,371,460,457
168770,371,460,462
168771,370,461,460
168772,367,457,462
168773,368,458,461
168774,364,460,461
168775,367,460,461
168776,366,460,460
168777,366,458,461
168778,367,461,458
168779,369,459,460
168780,371,457,461
168781,372,459,461
168782,373,460,462
168783,375,460,461
168784,376,459,461
168785,376,461,462
168786,377,460,461
168787,376,461,461
168788,375,460,463
168789,376,460,458
168790,379,460,461
168791,375,460,462
168792,378,459,461
168793,378,460,462
168794,380,460,461
168795,379,458,462
168796,377,460,462
168797,376,460,461
168798,379,461,460
168799,383,460,461
168800,384,459,459
168801,387,457,457
168802,389,458,461
168803,393,459,462
168804,393,457,461
168805,394,458,462
168806,395,460,461
168807,392,460,460
168808,389,459,462
168809,387,460,459
168810,383,461,460
168811,382,461,461
168812,379,458,459
168813,384,462,461
168814,385,460,461
168815,385,461,460
168816,388,460,458
168817,391,459,461
168818,392,460,462
168819,397,462,461
168820,399,460,461
168821,400,459,461
168822,401,460,462
168823,398,460,459
168824,394,460,461
168825,391,458,461
168826,385,460,462
168827,382,460,460
168828,378,460,460
168829,375,460,462
168830,375,460,460
168831,369,460,461
168832,370,460,460
168833,370,458,460
168834,370,460,462
168835,372,460,460
168836,373,457,461
168837,374,461,460
168838,377,458,461
168839,383,459,461
168840,387,459,460
168841,391,459,462
168842,393,460,460
168843,398,460,461
168844,400,461,461
168845,400,457,461
168846,401,460,462
168847,401,460,460
168848,397,461,460
168849,397,460,462
168850,395,460,458
168851,390,460,460
168852,390,462,462
168853,386,461,458
168854,386,459,460
168855,380,458,460
168856,384,461,462
168857,383,462,462
168858,384,460,459
168859,384,460,461
168860,385,460,460
168861,385,461,460
168862,386,460,461
168863,384,461,460
168864,386,460,460
168865,388,460,462
168866,389,461,461
168867,391,461,462
168868,391,461,460
168869,393,461,461
168870,393,462,461
168871,394,460,460
168872,393,461,460
168873,393,458,461
168874,392,461,460
168875,391,461,462
168876,389,460,461
168877,389,461,461
168878,388,461,459
168879,387,461,461
168880,386,460,458
168881,385,460,462
168882,384,459,460
168883,384,460,460
168884,384,459,461
168885,382,460,460
168886,383,458,460
168887,381,461,461
168888,384,460,461
168889,382,461,461
168890,385,459,461
168891,385,460,462
168892,387,460,461
168893,389,460,461
168894,392,460,459
168895,393,460,460
168896,397,461,461
168897,398,460,459
168898,398,459,460
168899,398,460,460
168900,397,460,459
168901,394,458,461
168902,393,459,461
168903,390,459,461
168904,386,462,461
168905,387,457,462
168906,385,461,461
168907,385,461,461
168908,381,460,461
168909,379,460,464
168910,379,460,462
168911,377,459,461
168912,378,462,462
168913,380,459,459
168914,384,459,461
168915,386,461,460
168916,390,460,462
168917,391,460,461
168918,391,459,461
168919,394,461,461
168920,400,461,459
168921,400,461,461
168922,403,458,462
168923,401,460,462
168924,405,460,462
168925,402,459,460
168926,402,459,460
168927,401,458,461
168928,397,461,460
168929,395,457,460
168930,392,462,462
168931,390,458,460
168932,384,461,462
168933,379,461,462
168934,376,460,462
168935,374,460,461
168936,371,460,462
168937,368,461,461
168938,365,462,459
168939,362,461,459
168940,360,461,458
168941,359,462,459
168942,358,459,461
168943,355,459,462
168944,351,461,462
168945,351,460,461
168946,352,461,461
168947,346,461,461
168948,342,461,462
168949,342,461,459
168950,338,461,460
168951,336,460,461
168952,335,459,461
168953,332,461,461
168954,329,461,461
168955,330,461,462
168956,332,460,460
168957,331,460,462
168958,337,457,461
168959,340,457,461
168960,341,459,460
168961,339,461,461
168962,344,460,459
168963,345,460,462
168964,347,458,462
168965,345,456,460
168966,344,458,463
168967,340,460,462
168968,337,461,461
168969,335,459,461
168970,329,460,462
168971,328,460,461
168972,322,461,461
168973,323,460,462
168974,322,461,462
168975,322,461,462
168976,325,461,461
168977,327,458,461
168978,326,460,461
168979,330,457,460
168980,334,460,460
168981,341,458,461
168982,345,458,462
168983,347,460,462
168984,347,460,462
168985,347,461,462
168986,346,461,462
168987,349,461,462
168988,348,458,463
168989,347,461,461
168990,344,460,461
168991,342,460,462
168992,336,460,461
168993,336,461,461
168994,335,461,459
168995,334,461,458
168996,342,462,461
168997,348,460,462
168998,353,460,462
168999,359,460,460
169000,363,460,462
169001,365,458,461
169002,367,459,461
169003,369,461,461
169004,366,459,462
169005,364,461,461
169006,362,458,462
169007,358,461,462
169008,358,461,462
169009,355,460,461
169010,354,459,461
169011,352,460,458
169012,354,459,461
169013,357,459,462
169014,358,459,460
169015,361,460,461
169016,363,458,461
169017,363,461,462
169018,364,460,462
169019,366,460,462
169020,366,461,463
169021,365,460,460
169022,367,459,462
169023,372,459,461
169024,372,459,461
169025,376,462,462
169026,377,460,461
169027,376,460,460
169028,378,461,461
169029,378,460,462
169030,377,459,461
169031,376,461,461
169032,374,458,461
169033,376,460,463
169034,380,459,461
169035,382,460,461
169036,385,460,460
169037,391,460,462
169038,391,460,461
169039,396,460,461
169040,396,461,462
169041,400,459,463
169042,400,459,462
169043,397,460,461
169044,392,461,458
169045,387,459,462
169046,384,462,461
169047,377,459,459
169048,375,460,460
169049,376,459,463
169050,375,461,460
169051,375,458,461
169052,377,460,463
169053,382,459,461
169054,387,461,461
169055,392,460,462
169056,395,456,461
169057,400,461,461
169058,401,457,461
169059,402,460,461
169060,403,461,462
169061,408,460,460
169062,410,460,462
169063,412,459,462
169064,414,456,460
169065,414,460,460
169066,415,460,461
169067,411,460,460
169068,411,460,459
169069,410,459,461
169070,408,456,462
169071,406,461,461
169072,401,460,461
169073,398,460,460
169074,395,459,462
169075,390,461,459
169076,390,460,460
169077,390,460,459
169078,391,460,461
169079,396,458,461
169080,402,459,462
169081,410,459,461
169082,414,460,457
169083,417,459,461
169084,423,460,462
169085,424,460,463
169086,424,456,461
169087,420,461,463
169088,419,460,460
169089,415,459,462
169090,409,457,461
169091,403,460,461
169092,404,461,463
169093,401,461,461
169094,401,460,463
169095,400,461,461
169096,403,461,458
169097,408,460,461
169098,411,462,461
169099,413,460,459
169100,418,458,461
169101,420,458,460
169102,423,460,461
169103,424,461,461
169104,427,459,461
169105,426,460,460
169106,426,460,462
169107,425,458,460
169108,423,457,461
169109,423,461,460
169110,423,460,460
169111,423,459,461
169112,428,457,461
169113,436,461,456
169114,440,459,462
169115,442,460,461
169116,445,461,459
169117,446,461,460
169118,449,461,460
1741016070236,NEW REP,,
169119,449,460,461
169120,450,460,461
169121,446,459,462
169122,443,460,463
169123,440,458,461
169124,434,461,458
169125,433,459,460
169126,433,460,461
169127,433,461,461
169128,431,460,461
169129,431,459,462
169130,430,461,464
169131,429,459,461
169132,427,461,460
169133,420,461,462
169134,421,459,459
169135,420,458,462
169136,426,461,458
169137,431,460,462
169138,436,459,461
169139,440,461,461
169140,444,460,459
169141,452,460,461
169142,459,459,462
169143,468,458,461
169144,472,460,462
169145,474,459,460
169146,472,460,462
169147,470,459,460
169148,468,457,460
169149,460,459,461
169150,452,460,463
169151,446,459,461
169152,439,458,461
169153,436,461,462
169154,434,460,462
169155,434,459,462
169156,432,462,461
169157,431,460,461
169158,437,459,461
169159,439,459,462
169160,445,459,461
169161,450,458,462
169162,455,460,460
169163,459,458,461
169164,460,459,459
169165,464,460,463
169166,466,459,461
169167,465,460,461
169168,463,461,462
169169,459,459,462
169170,461,460,459
169171,466,460,460
169172,469,462,462
169173,474,459,461
169174,474,459,461
169175,479,460,462
169176,479,460,461
169177,481,459,462
169178,482,456,461
169179,480,461,462
169180,481,460,462
169181,481,459,462
169182,479,459,460
169183,478,459,461
169184,472,459,459
169185,470,461,461
169186,464,459,462
169187,460,459,460
169188,456,459,462
169189,454,458,460
169190,449,460,461
169191,445,460,460
169192,444,460,461
169193,443,459,462
169194,440,460,461
169195,440,457,460
169196,441,460,461
169197,445,461,461
169198,454,461,460
169199,463,460,460
169200,471,459,462
169201,476,460,458
169202,485,461,460
169203,494,460,461
169204,501,461,462
169205,503,459,460
169206,505,461,460
169207,502,457,460
169208,498,460,462
169209,494,461,462
169210,483,461,461
169211,474,462,459
169212,467,462,462
169213,459,462,461
169214,455,459,461
169215,453,457,461
169216,453,459,461
169217,456,459,462
169218,464,460,463
169219,472,460,462
169220,475,462,462
169221,481,457,461
169222,484,457,459
169223,486,460,461
169224,488,459,462
169225,490,461,461
169226,490,461,461
169227,494,460,462
169228,490,461,461
169229,493,460,461
169230,493,460,462
169231,495,460,461
169232,494,460,459
169233,499,461,460
169234,501,460,461
169235,499,459,462
169236,497,460,459
169237,492,460,461
169238,489,460,462
169239,493,458,461
169240,495,460,461
169241,500,459,461
169242,499,461,462
169243,505,460,460
169244,508,460,462
169245,513,459,459
169246,514,458,460
169247,520,459,462
169248,518,460,462
169249,515,461,459
169250,513,459,459
169251,506,461,460
169252,503,461,459
169253,498,460,460
169254,498,462,461
169255,502,460,461
169256,503,460,460
169257,507,458,460
169258,509,460,462
169259,511,461,461
169260,515,461,462
169261,515,458,461
169262,515,460,462
169263,512,460,459
169264,513,458,461
169265,507,461,462
169266,502,459,460
169267,494,460,462
169268,492,460,459
169269,486,460,460
169270,484,460,461
169271,485,461,461
169272,485,459,458
169273,484,461,461
169274,491,460,460
169275,496,461,460
169276,504,461,458
169277,514,456,461
169278,519,460,460
169279,525,460,462
169280,528,460,461
169281,528,459,461
169282,526,460,459
169283,523,461,460
169284,520,458,461
169285,515,460,460
169286,507,461,460
169287,507,462,461
169288,509,460,460
169289,510,459,460
169290,512,460,460
169291,510,460,461
169292,506,460,462
169293,499,462,461
169294,499,461,460
169295,493,458,461
169296,487,459,461
169297,480,460,461
169298,480,460,461
169299,481,460,462
169300,485,461,462
169301,488,460,459
169302,495,459,462
169303,496,460,460
169304,500,462,458
169305,502,461,459
169306,497,460,461
169307,495,460,460
169308,493,460,460
169309,488,461,461
169310,482,459,461
169311,480,460,461
169312,478,461,461
169313,480,461,460
169314,480,462,463
169315,490,460,459
169316,498,460,462
169317,503,461,459
169318,509,461,462
169319,511,462,462
169320,513,460,460
169321,513,461,461
169322,512,459,460
169323,510,460,463
169324,510,459,460
169325,509,459,461
169326,508,458,461
169327,508,459,461
169328,505,461,461
169329,500,459,460
169330,492,459,461
169331,484,460,461
169332,476,460,460
169333,470,460,463
169334,467,460,458
169335,467,461,461
169336,467,461,460
169337,470,461,462
169338,476,461,462
169339,480,459,462
169340,483,458,461
169341,493,460,459
169342,498,459,461
169343,501,460,458
169344,501,461,461
169345,502,460,462
169346,501,460,461
169347,499,460,462
169348,494,459,461
169349,488,460,462
169350,487,460,460
169351,486,459,461
169352,484,457,460
169353,485,462,462
169354,480,460,460
169355,481,461,461
169356,479,461,461
169357,478,459,461
169358,480,462,462
169359,486,460,459
169360,495,460,460
169361,500,460,459
169362,506,459,459
169363,512,460,461
169364,513,460,462
169365,507,460,460
169366,500,461,462
169367,491,460,462
169368,487,460,461
169369,479,461,459
169370,480,460,461
169371,478,460,459
169372,480,459,461
169373,484,461,461
169374,490,459,462
169375,495,460,463
169376,498,460,462
169377,498,460,460
169378,500,459,461
169379,500,459,462
169380,501,459,461
169381,500,459,461
169382,501,460,462
169383,504,459,461
169384,508,461,461
169385,506,460,462
169386,507,461,462
169387,506,459,462
169388,502,461,461
169389,498,458,461
169390,494,461,460
169391,490,461,461
169392,489,458,461
169393,487,460,463
169394,483,460,462
169395,483,458,460
169396,483,460,461
169397,482,462,461
169398,483,460,461
169399,483,460,458
169400,481,459,462
169401,483,461,462
169402,480,460,462
169403,483,461,461
169404,483,459,461
169405,484,460,461
169406,490,461,462
169407,494,460,461
169408,499,460,459
169409,499,458,460
169410,500,459,461
169411,500,461,462
169412,499,457,460
169413,499,462,461
169414,497,459,460
169415,497,459,461
169416,495,458,462
169417,490,460,458
169418,488,460,461
169419,482,460,461
169420,477,460,461
169421,477,462,461
169422,477,461,461
169423,479,462,459
169424,483,459,459
169425,484,461,459
169426,483,460,458
169427,483,460,461
169428,480,460,459
169429,476,461,461
169430,469,460,461
169431,470,460,461
169432,466,460,461
169433,464,460,459
169434,463,460,460
169435,463,459,461
169436,464,459,461
169437,471,459,462
169438,473,459,462
169439,474,460,460
169440,477,461,461
169441,474,459,461
169442,475,460,462
169443,477,458,460
169444,476,460,460
169445,471,459,459
169446,471,462,458
169447,469,462,460
169448,465,458,461
169449,462,460,461
169450,461,460,462
169451,457,461,461
169452,452,458,462
169453,448,460,461
169454,448,459,460
169455,446,461,462
169456,445,459,461
169457,444,460,464
169458,443,460,462
169459,444,461,461
169460,445,460,461
169461,445,460,462
169462,445,460,463
169463,451,459,462
169464,450,460,459
169465,448,461,462
169466,446,460,461
169467,445,460,463
169468,442,460,462
169469,434,459,460
169470,430,460,461
169471,425,461,460
169472,420,461,459
169473,415,460,461
169474,408,459,460
169475,404,460,461
169476,399,460,462
169477,393,460,459
169478,395,460,462
169479,392,461,462
169480,394,461,462
169481,394,459,460
169482,396,460,459
169483,397,462,460
169484,397,460,461
169485,396,459,463
169486,397,460,461
169487,397,461,462
169488,394,459,460
169489,395,459,462
169490,396,459,460
169491,396,459,460
169492,397,460,461
169493,397,461,462
169494,399,458,460
169495,401,460,460
169496,405,461,462
169497,405,460,462
169498,408,461,459
169499,407,460,461
169500,409,460,460
169501,408,461,461
169502,408,460,461
169503,406,461,460
169504,405,461,460
169505,405,459,460
169506,403,460,459
169507,403,461,462
169508,402,461,459
169509,398,460,462
169510,394,460,459
169511,394,459,461
169512,393,461,460
169513,391,460,461
169514,388,459,461
169515,395,462,461
169516,391,460,461
169517,395,461,460
169518,395,460,461
169519,397,459,459
169520,402,460,461
169521,404,460,461
169522,406,459,461
169523,407,459,461
169524,408,460,461
169525,410,462,460
169526,414,459,459
169527,414,460,460
169528,416,460,460
169529,414,460,460
169530,411,461,462
169531,412,461,462
169532,411,462,460
169533,413,460,460
169534,413,462,459
169535,416,459,460
169536,420,461,461
169537,419,459,462
169538,422,462,461
169539,425,460,458
169540,425,460,462
169541,430,460,461
169542,430,460,460
169543,429,460,460
169544,427,459,460
169545,425,460,462
169546,417,461,461
169547,412,460,459
169548,404,460,461
169549,396,461,461
169550,391,456,461
169551,386,460,461
169552,382,458,461
169553,378,459,462
169554,376,461,462
169555,376,460,460
169556,379,457,461
169557,381,460,461
169558,385,460,461
169559,386,460,461
169560,391,462,462
169561,393,456,461
169562,394,461,460
169563,396,461,460
169564,398,459,461
169565,398,459,462
169566,401,461,462
169567,406,460,461
169568,411,459,464
169569,414,461,462
169570,416,461,462
169571,422,460,462
169572,427,461,459
169573,432,460,460
169574,440,461,459
169575,444,459,461
169576,445,461,462
169577,446,460,460
169578,449,461,461
169579,452,460,461
169580,454,458,462
169581,456,461,462
169582,458,461,463
169583,460,459,462
169584,463,461,461
169585,465,460,461
169586,465,460,459
169587,465,460,462
169588,464,455,461
169589,463,459,462
169590,462,458,462
169591,459,459,460
169592,456,459,461
169593,454,458,461
169594,450,459,463
169595,447,460,463
169596,445,461,462
169597,441,461,462
169598,444,460,462
169599,445,460,460
169600,447,458,461
169601,443,459,460
169602,446,459,461
169603,447,461,461
169604,448,460,462
169605,445,461,459
169606,442,462,461
169607,440,459,462
169608,440,460,461
169609,440,461,461
169610,439,460,464
169611,443,461,461
169612,443,460,461
169613,448,461,460
169614,451,459,461
169615,455,459,460
169616,460,460,460
169617,464,460,461
169618,469,460,460
169619,472,457,460
169620,474,459,461
169621,476,456,462
169622,479,460,461
169623,480,460,460
169624,483,459,461
169625,485,458,462
169626,483,460,460
169627,477,459,459
169628,468,459,462
169629,457,461,461
169630,444,460,462
169631,433,460,460
169632,426,461,462
169633,417,458,461
169634,411,456,460
169635,410,460,461
169636,412,460,461
169637,416,460,460
169638,425,459,462
169639,432,460,460
169640,435,460,462
169641,446,460,462
169642,451,460,461
169643,456,460,462
169644,460,459,462
169645,460,460,462
169646,464,460,461
169647,459,459,462
169648,452,459,460
169649,446,459,460
169650,433,460,463
169651,426,459,459
169652,417,461,462
169653,404,460,462
169654,396,459,462
169655,391,459,462
169656,389,459,461
169657,390,460,460
169658,390,462,459
169659,390,460,462
169660,389,460,461
169661,384,460,457
169662,384,461,462
169663,387,461,462
169664,389,459,460
169665,394,459,461
169666,399,461,460
169667,409,461,462
169668,414,460,462
169669,423,460,461
169670,432,460,461
169671,442,459,462
169672,449,458,461
169673,459,460,461
169674,467,459,460
169675,476,460,461
169676,486,457,461
169677,494,460,462
169678,504,459,461
169679,506,461,461
169680,511,460,461
169681,512,458,461
169682,510,460,461
169683,509,460,462
169684,503,460,460
169685,503,459,461
169686,501,463,462
169687,502,459,462
169688,495,458,460
169689,483,461,462
169690,474,460,462
169691,464,459,461
169692,453,461,462
169693,444,461,461
169694,441,458,461
169695,439,460,462
169696,441,460,461
169697,443,459,461
169698,452,460,461
169699,464,459,462
169700,474,460,461
169701,479,461,462
169702,490,460,461
169703,494,461,460
169704,494,459,461
169705,490,462,462
169706,485,461,461
169707,480,459,462
169708,475,459,463
169709,468,459,462
169710,466,457,461
169711,463,458,462
169712,455,459,461
169713,452,459,462
169714,449,460,461
169715,448,461,462
169716,448,460,461
169717,453,461,461
169718,457,461,462
169719,465,461,462
169720,473,461,459
169721,482,461,461
169722,495,460,463
169723,506,459,462
169724,510,459,462
169725,519,460,460
169726,523,457,461
169727,530,460,460
169728,534,459,462
169729,531,460,462
169730,534,459,462
169731,534,460,462
169732,535,460,461
169733,534,459,461
169734,528,460,462
169735,523,459,461
169736,515,460,460
169737,511,459,461
169738,508,460,460
169739,507,459,462
169740,511,460,462
169741,512,460,461
169742,513,461,459
169743,509,460,459
169744,503,460,462
169745,501,461,458
169746,496,461,458
169747,501,461,460
169748,504,461,459
169749,518,459,463
169750,523,459,462
169751,531,460,461
169752,543,459,461
169753,552,461,462
169754,559,459,460
169755,566,459,462
169756,574,461,462
169757,581,459,459
169758,593,460,461
169759,601,459,462
169760,609,459,460
169761,615,459,462
169762,620,460,462
169763,622,460,462
169764,625,461,461
169765,627,459,462
169766,627,462,462
169767,628,459,462
169768,628,460,462
169769,628,461,462
169770,623,460,459
169771,621,460,457
169772,619,460,459
169773,617,460,458
169774,617,457,461
169775,617,461,459
169776,622,460,460
169777,628,458,462
169778,637,460,463
169779,646,460,462
169780,651,460,459
169781,656,458,463
169782,656,457,460
169783,659,457,462
169784,660,460,462
169785,661,461,459
169786,662,460,461
169787,663,460,465
169788,660,461,458
169789,658,460,459
169790,653,460,460
169791,647,459,461
169792,644,460,462
169793,640,461,461
169794,637,459,461
169795,638,461,461
169796,637,460,461
169797,637,462,461
169798,635,461,460
169799,636,460,460
169800,634,459,461
169801,636,461,461
169802,640,460,463
169803,645,461,462
169804,652,461,460
169805,656,460,461
169806,658,460,460
169807,659,462,460
169808,657,461,461
169809,654,459,462
169810,648,459,459
169811,644,461,459
169812,638,459,460
169813,638,459,460
169814,635,460,461
169815,632,459,461
169816,633,460,461
169817,638,460,462
169818,641,457,461
169819,647,462,462
169820,652,457,460
169821,654,460,461
169822,659,458,461
169823,659,459,461
169824,659,462,460
169825,657,460,462
169826,654,462,462
169827,650,460,461
169828,649,461,462
169829,647,460,462
169830,645,461,461
169831,643,460,461
169832,642,458,461
169833,642,458,461
169834,643,458,461
169835,645,459,461
169836,646,460,461
169837,647,459,461
169838,646,458,462
169839,648,460,461
169840,650,460,461
169841,652,459,461
169842,650,458,463
169843,652,459,462
169844,652,460,462
169845,649,460,462
169846,650,458,461
169847,646,460,461
169848,639,458,460
169849,635,457,460
169850,628,461,462
169851,624,459,462
169852,620,460,462
169853,617,461,462
169854,615,457,461
169855,614,459,460
169856,615,457,460
169857,615,461,460
169858,617,458,460
169859,616,461,461
169860,616,461,459
169861,620,460,460
169862,619,462,460
169863,621,461,461
169864,620,460,462
169865,621,460,462
169866,619,461,460
169867,617,460,459
169868,611,461,459
169869,606,460,460
169870,602,459,462
169871,596,457,461
169872,591,459,461
169873,586,460,461
169874,582,460,461
169875,576,459,460
169876,570,461,461
169877,569,460,460
169878,571,460,461
169879,579,460,460
169880,586,458,462
169881,589,460,461
169882,592,461,455
169883,593,461,459
169884,591,460,459
169885,590,460,459
169886,588,460,461
169887,584,461,462
169888,581,460,461
169889,576,460,462
169890,576,460,460
169891,572,460,461
169892,569,459,460
169893,567,457,461
169894,566,461,462
169895,567,458,461
169896,566,460,461
169897,569,459,461
169898,574,460,460
169899,578,459,461
169900,581,459,462
169901,579,461,462
169902,579,458,461
169903,577,460,461
169904,575,460,460
169905,574,459,461
169906,572,459,462
169907,571,461,462
169908,571,461,461
169909,568,460,461
169910,563,460,462
169911,562,461,462
169912,563,459,461
169913,562,460,462
169914,562,459,461
169915,560,460,461
169916,558,461,458
169917,558,461,461
169918,559,460,462
169919,558,459,462
169920,559,457,460
169921,560,462,459
169922,561,459,460
169923,562,459,460
169924,560,460,459
169925,562,460,460
169926,561,459,461
169927,558,460,461
169928,553,459,462
169929,549,459,462
169930,540,459,462
169931,538,459,462
169932,533,460,461
169933,530,458,461
169934,527,459,462
169935,525,459,460
169936,524,460,462
169937,525,460,461
169938,526,460,461
169939,529,459,460
169940,532,460,459
169941,535,461,459
169942,538,457,460
169943,539,458,461
169944,539,462,462
169945,540,460,462
169946,538,457,460
169947,536,461,461
169948,533,461,461
169949,527,460,462
169950,524,460,460
169951,517,460,457
169952,515,459,460
169953,512,459,462
169954,509,461,460
169955,510,460,461
169956,511,458,461
169957,508,460,461
169958,513,460,462
169959,513,461,461
169960,514,460,462
169961,517,460,461
169962,520,460,461
169963,520,459,462
169964,522,457,461
169965,519,459,460
169966,517,460,460
169967,513,460,461
169968,512,460,462
169969,508,461,461
169970,506,459,462
169971,503,460,460
169972,501,459,461
169973,499,460,460
169974,497,460,460
169975,499,460,462
169976,500,459,462
169977,501,460,462
169978,501,460,462
169979,506,458,461
169980,508,462,462
169981,508,461,461
169982,509,459,459
169983,512,460,460
169984,513,461,460
169985,513,459,462
169986,513,460,461
169987,512,461,460
169988,510,459,459
169989,507,460,459
169990,504,461,462
169991,500,459,460
169992,500,459,462
169993,499,460,461
169994,494,459,460
169995,493,459,460
169996,494,458,461
169997,493,460,461
169998,497,459,462
169999,500,459,461
170000,502,460,462
170001,507,460,460
170002,507,459,461
170003,513,458,460
170004,513,460,462
170005,515,460,460
170006,516,460,460
170007,515,459,461
170008,513,460,462
170009,509,459,462
170010,507,459,461
170011,504,459,460
170012,503,460,462
170013,499,460,461
170014,498,461,460
170015,494,462,461
170016,497,459,461
170017,497,460,460
170018,499,460,460
170019,501,459,462
170020,504,460,461
170021,505,460,461
170022,507,457,462
170023,509,458,461
170024,509,461,458
170025,514,459,462
170026,513,460,462
170027,514,462,460
170028,514,458,462
170029,512,458,461
170030,512,458,460
170031,508,460,461
170032,504,459,461
170033,502,459,462
170034,501,459,459
170035,500,459,459
170036,502,461,461
170037,505,460,461
170038,507,457,460
170039,510,461,457
170040,514,460,462
170041,520,459,461
170042,523,458,462
170043,526,460,462
170044,526,461,463
170045,527,459,461
170046,526,460,459
170047,526,460,462
170048,527,460,463
170049,528,461,460
170050,527,458,460
170051,527,459,463
170052,525,460,461
170053,524,459,461
170054,522,461,462
170055,525,460,461
170056,523,458,463
170057,523,462,460
170058,526,460,461
170059,526,459,460
170060,528,459,462
170061,532,457,460
170062,535,458,462
170063,535,459,462
170064,536,460,461
170065,535,461,458
170066,535,460,462
170067,534,459,461
170068,529,460,459
170069,527,460,462
170070,522,458,462
170071,517,460,460
170072,511,460,460
170073,506,459,462
170074,503,455,461
170075,498,460,462
170076,494,458,461
170077,491,459,459
170078,491,461,461
170079,491,458,459
170080,488,459,461
170081,485,459,458
170082,488,460,461
170083,486,460,460
170084,485,460,461
170085,490,460,461
170086,489,458,460
170087,487,460,460
170088,488,458,461
170089,488,461,462
170090,488,457,461
170091,486,461,462
170092,486,458,461
170093,484,462,459
170094,484,459,461
170095,484,461,462
170096,481,460,459
170097,482,460,462
170098,484,460,460
170099,483,461,460
170100,485,460,462
170101,487,458,461
170102,486,461,462
170103,488,461,459
170104,491,461,460
170105,492,461,459
170106,493,460,460
170107,492,458,461
170108,492,460,460
170109,487,461,458
170110,489,462,461
170111,488,459,460
170112,486,462,460
170113,487,460,461
170114,487,461,461
170115,483,460,462
170116,490,461,461
170117,492,459,459
170118,490,461,461
170119,495,460,459
170120,496,460,460
170121,499,460,460
170122,501,459,463
170123,503,459,462
170124,506,462,462
170125,509,460,461
170126,512,457,459
170127,513,457,459
170128,514,461,458
170129,515,461,461
170130,515,459,462
170131,518,459,461
170132,517,460,460
170133,517,459,460
170134,517,461,458
170135,516,461,460
170136,519,460,461
170137,522,460,461
170138,520,458,461
170139,529,460,461
170140,529,460,461
170141,531,460,459
170142,533,459,462
170143,534,460,460
170144,535,460,460
170145,534,459,462
170146,538,460,461
170147,537,459,459
170148,538,459,461
170149,536,460,460
170150,534,459,461
170151,535,462,461
170152,531,461,460
170153,530,460,460
170154,528,460,460
170155,527,460,461
170156,525,459,461
170157,525,460,459
170158,525,458,460
170159,523,462,461
170160,526,459,461
170161,525,459,460
170162,527,457,461
170163,528,461,461
170164,527,460,462
170165,527,460,458
170166,527,459,462
170167,523,460,461
170168,521,459,460
170169,515,460,459
170170,513,459,461
170171,508,459,460
170172,506,459,461
170173,504,458,462
170174,504,459,462
170175,500,452,461
170176,499,460,460
170177,501,462,460
170178,504,459,462
170179,505,459,461
170180,506,460,462
170181,509,460,459
170182,511,460,457
170183,514,460,459
170184,520,458,459
170185,518,459,460
170186,520,459,459
170187,519,461,460
170188,517,459,462
170189,516,459,461
170190,514,460,460
170191,509,460,460
170192,507,460,461
170193,505,459,460
170194,501,459,461
170195,501,460,462
170196,500,459,462
170197,499,461,461
170198,503,460,460
170199,504,459,460
170200,506,459,461
170201,508,462,461
170202,508,459,455
170203,513,460,460
170204,512,459,458
170205,515,459,460
170206,515,460,460
170207,513,459,459
170208,513,459,459
170209,512,457,461
170210,508,460,461
170211,504,462,459
170212,504,460,461
170213,503,460,461
170214,501,461,460
170215,499,459,461
170216,499,458,461
170217,498,458,460
170218,500,458,460
170219,497,460,460
170220,499,459,460
170221,502,460,463
170222,499,460,462
170223,498,459,462
170224,500,460,461
170225,499,460,461
170226,494,461,459
170227,495,460,461
170228,493,461,461
170229,487,460,463
170230,482,460,462
170231,477,460,463
170232,473,462,459
170233,470,459,461
170234,463,461,460
170235,461,461,460
170236,460,459,462
170237,462,460,461
170238,463,460,461
170239,464,460,459
170240,468,461,460
170241,473,458,460
170242,475,456,461
170243,479,461,461
170244,479,461,460
170245,479,459,461
170246,479,461,461
170247,475,460,462
170248,474,459,461
170249,468,459,461
170250,465,460,462
170251,455,461,461
170252,457,460,461
170253,453,461,461
170254,452,461,460
170255,449,462,462
170256,442,462,461
170257,445,460,461
170258,443,460,462
170259,445,460,460
170260,446,460,460
170261,449,460,461
170262,449,460,460
170263,450,460,460
170264,452,461,461
170265,452,462,458
170266,454,460,460
170267,455,459,462
170268,453,460,462
170269,451,461,459
170270,448,460,460
170271,448,458,460
170272,442,461,459
170273,444,460,461
170274,439,461,461
170275,436,460,460
170276,436,461,462
170277,433,462,462
170278,433,461,462
170279,434,459,460
170280,432,459,461
170281,432,460,461
170282,432,461,461
170283,436,460,460
170284,434,461,461
170285,433,460,461
170286,433,460,462
170287,430,461,461
170288,428,462,460
170289,426,458,462
170290,419,460,462
170291,417,459,461
170292,412,459,461
170293,409,459,461
170294,406,460,461
170295,404,461,461
170296,400,461,461
170297,397,459,460
170298,397,461,462
170299,396,460,460
170300,396,461,460
170301,396,460,461
170302,396,458,461
170303,396,461,462
170304,395,460,461
170305,393,460,461
170306,388,462,459
170307,387,461,462
170308,384,460,460
170309,381,459,461
170310,378,458,459
170311,375,458,461
170312,374,457,461
170313,374,458,461
170314,372,459,462
170315,373,460,462
170316,372,461,461
170317,377,460,460
170318,380,460,458
170319,383,462,461
170320,389,459,462
170321,393,458,462
170322,396,459,461
170323,401,462,460
170324,400,460,462
170325,403,458,461
170326,402,457,461
170327,403,460,462
170328,399,460,461
170329,401,460,462
170330,402,461,461
170331,405,461,462
170332,409,460,461
170333,410,461,459
170334,415,460,459
170335,419,462,460
170336,422,460,460
170337,428,459,462
170338,432,460,460
170339,441,461,461
170340,443,461,461
170341,452,459,462
170342,456,460,458
170343,465,461,458
170344,471,459,460
170345,477,458,461
170346,482,460,462
170347,482,461,460
170348,485,461,461
170349,487,457,460
170350,487,460,461
170351,491,460,460
170352,488,461,462
170353,488,459,463
170354,489,461,462
170355,490,462,462
170356,492,460,462
170357,492,459,462
170358,491,461,461
170359,496,459,461
170360,498,460,462
170361,500,461,460
170362,502,461,460
170363,503,460,461
170364,504,459,461
170365,504,461,460
170366,501,460,462
170367,500,460,461
170368,500,462,461
170369,496,461,463
170370,494,461,461
170371,492,461,460
170372,492,460,461
170373,490,462,462
170374,486,461,460
170375,488,459,463
170376,488,461,460
170377,490,461,456
170378,493,462,462
170379,494,459,461
170380,494,460,462
170381,494,462,462
170382,493,460,461
170383,498,460,462
170384,496,461,461
170385,497,457,460
170386,497,458,461
170387,498,460,462
170388,499,460,462
170389,502,460,461
170390,502,460,462
170391,504,459,461
170392,502,461,462
170393,507,460,459
170394,508,461,461
170395,512,460,460
170396,516,460,461
170397,519,460,461
170398,523,459,459
170399,529,461,461
170400,534,459,461
170401,536,461,463
170402,541,459,460
170403,545,460,460
170404,549,460,460
170405,555,460,461
170406,556,460,462
170407,560,462,461
170408,561,460,462
170409,562,459,461
170410,562,457,461
170411,563,460,459
170412,564,460,460
170413,565,460,459
170414,566,460,461
170415,568,461,460
170416,571,462,459
170417,573,460,462
170418,573,460,460
170419,579,461,463
170420,581,460,463
170421,585,460,460
170422,591,460,458
170423,593,459,458
170424,597,459,461
170425,600,461,459
170426,601,460,461
170427,605,460,458
170428,607,461,460
170429,607,458,460
170430,605,460,461
170431,607,460,461
170432,607,457,460
170433,606,457,460
170434,606,459,460
170435,606,460,461
170436,605,461,458
170437,605,460,460
170438,607,457,462
170439,608,460,460
170440,611,460,460
170441,613,461,459
170442,615,459,461
170443,616,461,460
170444,622,459,461
170445,620,460,462
170446,623,459,460
170447,622,459,459
170448,626,459,461
170449,623,461,462
170450,622,459,461
170451,620,462,460
170452,622,460,461
170453,620,458,462
170454,619,460,462
170455,619,459,462
170456,618,461,459
170457,614,459,458
170458,616,459,459
170459,616,458,461
170460,618,458,459
170461,618,456,460
170462,621,460,460
170463,624,458,462
170464,626,458,461
170465,623,459,462
170466,626,460,463
170467,630,462,461
170468,625,460,462
170469,627,461,459
170470,626,460,459
170471,622,459,458
170472,625,460,460
170473,619,457,460
170474,617,455,461
170475,619,460,462
170476,623,459,461
170477,621,461,461
170478,625,461,459
170479,627,460,460
170480,627,460,462
170481,627,460,459
170482,630,460,461
170483,633,462,462
170484,633,459,462
170485,634,459,461
170486,633,459,459
170487,633,460,461
170488,631,459,461
170489,626,462,457
170490,626,460,459
170491,623,461,459
170492,619,459,460
170493,619,460,461
170494,615,461,461
170495,619,461,459
170496,622,460,462
170497,619,460,459
170498,620,461,459
170499,619,461,461
170500,622,459,460
170501,621,459,461
170502,618,462,462
170503,621,460,460
170504,626,459,462
170505,623,461,461
170506,627,460,463
170507,628,460,462
170508,627,459,461
170509,629,459,461
170510,625,459,462
170511,625,458,462
170512,624,458,460
170513,619,461,463
170514,616,458,462
170515,615,457,461
170516,610,457,461
170517,607,458,461
170518,601,461,461
170519,602,458,461
170520,601,460,462
170521,597,459,461
170522,592,460,462
170523,593,457,459
170524,590,458,462
170525,587,460,460
170526,584,460,463
170527,580,457,459
170528,575,461,459
170529,571,460,460
170530,568,460,460
170531,567,461,460
170532,564,460,461
170533,550,462,462
170534,555,460,462
170535,549,457,460
170536,547,461,460
170537,542,459,461
170538,540,460,460
170539,535,460,459
170540,532,460,463
170541,532,459,459
170542,526,460,462
170543,525,462,460
170544,525,459,459
170545,524,458,461
170546,515,461,460
170547,516,460,460
170548,520,459,460
170549,517,460,462
170550,517,457,461
170551,515,460,461
170552,514,461,459
170553,512,460,462
170554,509,460,460
170555,509,459,461
170556,507,460,463
170557,506,461,461
170558,503,460,461
170559,503,460,461
170560,503,460,462
170561,502,460,461
170562,500,461,462
170563,498,458,460
170564,499,460,461
170565,496,457,460
170566,489,462,463
170567,493,460,459
170568,492,460,459
170569,489,460,463
170570,487,459,461
170571,483,461,460
170572,480,460,458
170573,479,461,463
170574,477,461,461
170575,478,460,460
170576,476,458,459
170577,475,460,460
170578,477,461,460
170579,476,460,460
170580,474,458,461
170581,477,458,461
170582,478,461,461
170583,477,461,460
170584,476,460,460
170585,476,459,461
170586,473,460,461
170587,474,460,461
170588,474,462,458
170589,474,460,461
170590,472,458,462
170591,470,460,460
170592,464,459,462
170593,457,458,459
170594,446,459,461
170595,444,459,462
170596,440,459,462
170597,437,460,464
170598,436,460,462
170599,440,459,460
170600,437,463,463
170601,441,460,461
170602,442,460,461
170603,442,459,461
170604,448,459,462
170605,447,460,460
170606,446,459,460
170607,446,460,462
170608,445,459,461
170609,446,460,460
170610,447,457,462
170611,448,460,461
170612,447,459,462
170613,448,458,462
170614,446,460,461
170615,446,459,460
170616,445,459,461
170617,442,462,460
170618,440,461,460
170619,438,460,461
170620,435,459,460
170621,435,460,461
170622,435,457,461
170623,434,459,461
170624,435,459,461
170625,433,460,462
170626,434,460,461
170627,433,460,462
170628,435,459,462
170629,432,460,463
170630,430,463,459
170631,433,460,462
170632,427,460,460
170633,427,460,463
170634,423,463,462
170635,421,461,460
170636,421,461,461
170637,420,460,461
170638,422,460,462
170639,423,458,460
170640,425,460,461
170641,430,461,461
170642,427,457,462
170643,426,462,461
170644,423,460,460
170645,419,461,461
170646,418,460,460
170647,415,461,459
170648,414,460,461
170649,411,459,462
170650,407,460,461
170651,406,461,461
170652,406,461,459
170653,407,459,462
170654,405,460,458
170655,404,460,462
170656,404,461,460
170657,404,460,457
170658,405,460,460
170659,405,461,460
170660,405,460,461
170661,411,462,462
170662,417,460,462
170663,421,459,461
170664,427,460,461
170665,430,459,460
170666,433,460,460
170667,433,461,459
170668,430,457,460
170669,423,462,460
170670,419,460,461
170671,411,459,461
170672,406,461,464
170673,403,460,459
170674,397,460,459
170675,393,457,461
170676,395,461,461
170677,392,457,460
170678,394,458,459
170679,394,458,461
170680,394,460,461
170681,399,458,462
170682,404,460,458
170683,404,460,461
170684,406,459,461
170685,407,460,461
170686,408,457,461
170687,406,460,459
170688,407,460,458
170689,407,459,461
170690,408,460,461
170691,408,461,459
170692,405,460,459
170693,405,460,460
170694,404,461,462
170695,407,461,461
170696,410,460,462
170697,411,459,460
170698,410,460,460
170699,415,460,460
170700,416,462,461
170701,417,461,460
170702,419,461,460
170703,416,461,462
170704,417,460,461
170705,416,462,462
170706,415,461,462
170707,413,460,461
170708,412,460,461
170709,416,460,461
170710,411,460,461
170711,410,461,461
170712,406,460,457
170713,408,460,463
170714,407,460,462
170715,407,461,461
170716,407,463,461
170717,410,460,461
170718,414,460,461
170719,418,461,463
170720,421,458,461
170721,422,459,461
170722,428,460,461
170723,428,460,462
170724,428,460,461
170725,429,460,461
170726,428,460,461
170727,424,460,461
170728,422,460,461
170729,419,459,462
170730,415,461,461
170731,413,462,458
170732,407,460,463
170733,408,459,463
170734,406,458,462
170735,403,460,462
170736,403,460,461
170737,402,460,462
170738,402,459,461
170739,407,460,463
170740,411,459,461
170741,414,463,459
170742,418,461,459
170743,420,461,458
170744,419,460,462
170745,423,460,461
170746,423,460,462
170747,421,461,462
170748,420,461,461
170749,423,457,461
170750,413,459,462
170751,411,459,463
170752,415,458,463
170753,415,459,462
170754,414,460,462
170755,414,461,460
170756,416,459,463
170757,414,462,462
170758,413,460,462
170759,414,461,462
170760,416,458,462
170761,417,460,462
170762,416,460,462
170763,413,460,460
170764,415,460,462
170765,411,460,461
170766,411,460,461
170767,412,460,461
170768,410,461,461
170769,409,460,463
170770,408,460,462
170771,407,460,460
170772,405,460,461
170773,404,460,461
170774,406,459,462
170775,403,458,460
170776,403,460,463
170777,402,460,461
170778,403,461,461
170779,403,459,461
170780,405,460,457
170781,409,458,460
170782,409,461,460
170783,409,461,460
170784,408,459,460
170785,412,460,460
170786,414,461,461
170787,413,460,462
170788,412,459,462
170789,411,461,461
170790,407,460,461
170791,404,458,461
170792,401,457,461
170793,401,460,462
170794,398,459,462
170795,397,460,461
170796,396,462,462
170797,402,460,463
170798,405,461,462
170799,408,459,462
170800,411,461,460
170801,413,461,461
170802,412,459,462
170803,415,461,460
170804,416,459,462
170805,412,459,462
170806,409,460,462
170807,407,459,462
170808,404,459,461
170809,400,457,463
170810,397,461,461
170811,397,464,459
170812,396,460,462
170813,395,460,461
170814,394,458,461
170815,391,462,460
170816,391,460,462
170817,390,460,460
170818,389,459,460
170819,386,460,462
170820,388,460,459
170821,393,459,462
170822,395,461,462
170823,396,460,462
170824,396,461,460
170825,398,459,462
170826,398,458,462
170827,401,460,461
170828,400,460,464
170829,397,461,459
170830,396,460,459
170831,392,461,459
170832,389,461,461
170833,385,459,461
170834,385,462,462
170835,383,460,462
170836,385,461,461
170837,387,461,462
170838,388,460,461
170839,387,462,459
170840,388,461,462
170841,392,460,462
170842,395,460,459
170843,398,460,461
170844,404,460,460
170845,408,459,462
170846,410,461,459
170847,412,460,461
170848,414,460,461
170849,414,460,462
170850,413,461,460
170851,411,461,461
170852,410,458,462
170853,409,460,462
170854,404,459,460
170855,399,461,463
170856,396,458,462
170857,391,459,460
170858,399,462,461
170859,400,460,460
170860,401,460,462
170861,405,461,462
170862,410,461,460
170863,419,459,462
170864,423,460,461
170865,432,461,462
170866,438,462,461
170867,444,460,460
170868,443,461,463
170869,445,459,462
170870,442,459,462
170871,438,461,459
170872,432,459,461
170873,425,459,463
170874,419,457,461
170875,412,461,461
170876,410,459,461
170877,407,460,460
170878,408,458,458
170879,404,460,460
170880,411,461,462
170881,415,459,462
170882,415,460,461
170883,419,460,461
170884,424,459,460
170885,425,463,461
170886,424,460,462
170887,430,460,461
170888,433,459,461
170889,432,459,462
170890,431,459,460
170891,430,460,461
170892,428,461,463
170893,430,460,462
170894,427,459,462
170895,426,461,461
170896,427,458,461
170897,429,458,460
170898,429,460,461
170899,431,461,457
170900,431,458,460
170901,435,458,460
170902,435,461,460
170903,436,459,457
170904,441,461,462
170905,449,460,461
170906,455,461,462
170907,456,457,461
170908,460,460,462
170909,460,460,459
170910,461,460,461
170911,462,461,461
170912,463,461,460
170913,465,460,459
170914,462,460,461
170915,457,459,459
170916,453,459,458
170917,448,459,461
170918,449,459,461
170919,447,460,462
170920,446,459,461
170921,448,458,461
170922,449,457,460
170923,450,461,461
170924,452,461,461
170925,450,462,461
170926,447,460,462
170927,450,459,459
170928,448,460,462
170929,449,458,459
170930,450,460,461
170931,447,459,463
170932,444,461,461
170933,442,462,460
170934,438,459,463
170935,438,460,460
170936,438,460,460
170937,437,461,461
170938,439,458,461
170939,441,460,461
170940,442,458,462
170941,444,461,461
170942,446,460,462
170943,449,460,464
170944,451,459,461
170945,452,458,461
170946,453,460,462
170947,454,458,461
170948,452,459,462
170949,449,459,461
170950,446,460,461
170951,444,459,461
170952,444,460,461
170953,435,458,462
170954,438,460,458
170955,436,461,461
170956,437,460,461
170957,438,460,460
170958,439,460,460
170959,442,460,460
170960,440,461,459
170961,441,461,460
170962,444,461,462
170963,446,460,462
170964,448,462,461
170965,457,459,461
170966,461,460,462
170967,469,460,460
170968,473,460,460
170969,479,460,462
170970,483,460,460
170971,485,457,462
170972,487,459,462
170973,481,461,463
170974,477,462,461
170975,469,461,462
170976,461,461,458
170977,453,460,461
170978,449,458,460
170979,448,461,461
170980,450,461,463
170981,452,459,460
170982,458,461,459
170983,461,458,461
170984,463,461,463
170985,465,459,459
170986,467,460,462
170987,465,461,462
170988,462,460,461
170989,454,459,462
170990,453,460,462
170991,453,459,462
170992,449,460,461
170993,447,460,462
170994,448,459,461
170995,449,459,460
170996,456,460,462
170997,459,459,462
170998,464,459,462
170999,468,460,460
171000,472,461,462
171001,474,459,462
171002,472,461,461
171003,470,460,461
171004,466,462,460
171005,463,458,460
171006,465,461,460
171007,473,460,460
171008,481,459,462
171009,476,460,461
171010,481,461,460
171011,481,460,461
171012,484,457,462
171013,481,461,461
171014,476,460,461
171015,470,460,461
171016,461,460,461
171017,452,460,460
171018,440,457,461
171019,429,460,461
171020,423,462,464
171021,415,460,461
171022,421,461,461
171023,427,460,460
171024,430,460,460
171025,438,461,462
171026,443,459,461
171027,448,459,461
171028,448,456,460
171029,447,460,461
171030,442,460,462
171031,439,460,461
171032,433,460,461
171033,427,457,461
171034,425,459,462
171035,421,459,462
171036,418,459,462
171037,418,459,461
171038,420,459,462
171039,420,459,462
171040,426,462,461
171041,428,461,460
171042,431,461,462
171043,433,459,462
171044,437,460,459
171045,444,459,461
171046,449,459,461
171047,452,460,461
171048,456,460,460
171049,459,457,462
171050,460,459,461
171051,459,459,461
171052,459,457,462
171053,455,461,461
171054,447,459,462
171055,439,460,462
171056,435,460,461
171057,429,459,460
171058,426,462,460
171059,426,459,462
171060,428,460,460
171061,434,460,461
171062,441,462,461
171063,445,460,463
171064,451,460,463
171065,453,461,463
171066,453,460,459
171067,454,460,461
171068,450,461,460
171069,446,459,461
171070,436,459,461
171071,434,460,462
171072,434,457,462
171073,436,462,461
171074,435,460,461
171075,439,461,459
171076,446,460,461
171077,451,461,461
171078,456,459,462
171079,466,460,461
171080,469,463,460
171081,472,459,461
171082,473,460,462
171083,470,459,462
171084,463,460,463
171085,457,458,462
171086,453,459,462
171087,455,460,460
171088,456,459,462
171089,461,460,461
171090,460,459,462
171091,464,457,461
171092,460,459,462
171093,456,459,460
171094,450,459,461
171095,445,456,460
171096,442,457,461
171097,433,459,462
171098,428,459,460
171099,421,461,463
171100,426,460,461
171101,435,460,462
171102,450,457,459
171103,466,459,460
171104,475,460,462
171105,487,460,462
171106,490,460,458
171107,496,460,462
171108,495,460,460
171109,499,460,461
171110,494,458,459
171111,486,459,461
171112,477,461,463
171113,466,461,461
171114,460,459,457
171115,459,457,461
171116,459,461,461
171117,460,459,461
171118,459,459,461
171119,464,459,460
171120,466,459,460
171121,468,460,462
171122,465,458,461
171123,463,460,461
171124,459,461,465
171125,455,460,462
171126,448,460,462
171127,444,459,462
171128,439,461,462
171129,436,460,460
171130,437,460,462
171131,439,461,458
171132,444,460,461
171133,455,457,461
171134,461,461,460
171135,469,460,460
171136,475,459,462
171137,478,458,462
171138,480,458,461
171139,478,462,461
171140,477,460,462
171141,475,461,463
171142,472,460,462
171143,464,461,462
171144,461,462,461
171145,458,459,461
171146,461,457,461
171147,467,459,461
171148,472,459,462
171149,474,461,462
171150,474,460,463
171151,472,460,461
171152,467,460,462
171153,465,459,462
171154,459,460,460
171155,453,460,463
171156,448,460,459
171157,438,460,462
171158,436,460,461
171159,434,460,461
171160,434,459,463
171161,435,459,462
171162,435,460,462
171163,438,461,457
171164,440,459,461
171165,436,460,462
171166,436,454,461
171167,433,459,464
171168,429,458,462
171169,430,459,462
171170,431,461,462
171171,434,459,461
171172,432,460,463
171173,437,461,460
171174,432,461,461
171175,429,460,457
171176,426,459,460
171177,423,457,461
171178,418,459,461
171179,412,460,462
171180,410,460,461
171181,406,461,464
171182,403,460,461
171183,402,458,461
171184,401,462,461
171185,402,462,464
171186,410,459,460
171187,418,458,461
171188,419,460,462
171189,426,461,460
171190,423,462,462
171191,422,459,460
171192,422,461,462
171193,419,460,462
171194,414,460,457
171195,408,460,461
171196,404,461,459
171197,402,459,462
171198,401,460,461
171199,406,460,461
171200,410,461,462
171201,415,461,461
171202,421,459,462
1741016072320,NEW REP,,
171203,425,459,462
171204,428,460,463
171205,428,460,458
171206,432,460,464
171207,432,460,461
171208,432,459,461
171209,433,461,459
171210,438,460,462
171211,439,459,461
171212,440,460,462
171213,441,462,461
171214,441,461,460
171215,436,459,460
171216,434,461,460
171217,430,461,462
171218,433,457,461
171219,433,460,461
171220,436,459,462
171221,438,460,462
171222,438,459,461
171223,442,459,462
171224,442,455,461
171225,440,458,462
171226,440,460,460
171227,437,458,462
171228,437,460,461
171229,435,457,460
171230,435,461,460
171231,437,459,460
171232,440,460,459
171233,441,461,462
171234,446,461,461
171235,449,460,461
171236,450,462,463
171237,453,461,461
171238,453,460,461
171239,454,461,460
171240,452,461,461
171241,449,460,462
171242,446,460,462
171243,446,462,461
171244,445,460,459
171245,446,461,461
171246,447,461,462
171247,446,459,461
171248,449,459,461
171249,449,462,463
171250,451,459,462
171251,452,461,458
171252,455,459,461
171253,455,459,461
171254,454,459,461
171255,452,462,461
171256,450,459,462
171257,447,460,462
171258,442,460,461
171259,437,461,462
171260,440,458,461
171261,442,460,461
171262,442,461,461
171263,447,459,462
171264,449,460,461
171265,453,460,458
171266,460,460,461
171267,466,460,462
171268,468,461,462
171269,471,462,458
171270,472,459,461
171271,470,459,461
171272,463,460,458
171273,458,461,462
171274,455,460,461
171275,452,461,461
171276,445,460,463
171277,446,460,461
171278,444,461,460
171279,448,460,461
171280,456,461,462
171281,462,460,459
171282,467,461,464
171283,473,458,461
171284,472,458,462
171285,468,460,462
171286,461,460,462
171287,452,461,462
171288,446,461,463
171289,438,459,461
171290,436,462,460
171291,433,461,462
171292,429,462,461
171293,432,459,461
171294,432,460,461
171295,436,461,462
171296,437,461,459
171297,435,461,461
171298,438,461,460
171299,442,461,462
171300,445,460,461
171301,451,461,462
171302,454,460,462
171303,458,459,461
171304,459,462,462
171305,460,460,462
171306,455,459,462
171307,448,460,462
171308,444,461,461
171309,437,461,462
171310,433,461,462
171311,429,460,460
171312,423,460,462
171313,420,459,461
171314,417,460,461
171315,411,459,461
171316,412,461,460
171317,411,459,462
171318,407,461,461
171319,411,463,460
171320,412,460,459
171321,415,459,461
171322,416,461,461
171323,417,461,461
171324,419,461,462
171325,422,460,462
171326,428,462,460
171327,426,461,461
171328,432,462,463
171329,427,460,462
171330,432,460,461
171331,432,461,462
171332,433,459,461
171333,433,461,460
171334,431,460,461
171335,433,460,461
171336,435,460,461
171337,435,461,459
171338,434,459,461
171339,431,461,461
171340,431,458,461
171341,429,459,461
171342,429,459,462
171343,430,459,463
171344,429,461,461
171345,433,461,459
171346,433,461,459
171347,433,461,463
171348,431,460,460
171349,435,461,462
171350,436,460,461
171351,436,459,462
171352,433,460,460
171353,432,461,460
171354,429,461,463
171355,430,461,462
171356,429,461,461
171357,425,458,462
171358,420,461,460
171359,417,462,463
171360,418,458,460
171361,416,460,462
171362,414,461,462
171363,413,460,460
171364,412,461,460
171365,409,459,461
171366,410,458,461
171367,414,461,460
171368,417,460,462
171369,418,461,460
171370,419,458,461
171371,422,460,461
171372,422,460,461
171373,425,458,461
171374,427,458,461
171375,428,460,463
171376,429,459,461
171377,433,461,461
171378,434,461,459
171379,435,460,462
171380,440,459,461
171381,441,461,464
171382,444,455,462
171383,445,459,462
171384,445,461,462
171385,449,460,462
171386,448,460,461
171387,443,458,460
171388,437,460,462
171389,435,459,462
171390,432,458,461
171391,427,458,462
171392,423,457,462
171393,418,459,462
171394,415,460,461
171395,414,458,463
171396,413,461,461
171397,414,459,461
171398,413,461,460
171399,412,459,462
171400,417,460,461
171401,422,460,461
171402,425,458,460
171403,429,462,462
171404,432,462,461
171405,433,460,461
171406,433,460,460
171407,433,460,461
171408,434,462,460
171409,434,459,463
171410,430,461,458
171411,427,460,461
171412,424,461,460
171413,419,462,461
171414,414,462,461
171415,415,461,462
171416,412,458,461
171417,411,459,461
171418,412,460,462
171419,412,460,464
171420,416,462,462
171421,419,461,459
171422,423,461,461
171423,423,459,461
171424,428,461,461
171425,430,461,459
171426,435,459,462
171427,440,461,463
171428,442,460,461
171429,445,460,463
171430,449,461,460
171431,444,461,461
171432,448,460,462
171433,445,459,461
171434,443,459,460
171435,438,461,462
171436,438,460,462
171437,435,460,461
171438,434,461,460
171439,431,460,462
171440,428,460,461
171441,430,461,460
171442,432,461,464
171443,434,458,461
171444,435,461,460
171445,437,461,459
171446,437,461,459
171447,436,461,460
171448,436,461,462
171449,439,459,461
171450,437,462,459
171451,437,460,461
171452,437,461,462
171453,434,460,460
171454,436,461,462
171455,436,461,462
171456,435,460,461
171457,434,462,461
171458,432,459,461
171459,431,461,460
171460,433,460,462
171461,434,458,462
171462,436,460,461
171463,436,460,460
171464,438,461,460
171465,439,459,464
171466,437,461,459
171467,438,460,462
171468,435,459,461
171469,433,461,461
171470,429,460,458
171471,423,462,462
171472,422,460,461
171473,418,462,461
171474,415,461,461
171475,413,460,461
171476,409,460,462
171477,409,460,461
171478,412,460,462
171479,412,459,462
171480,411,462,460
171481,413,461,459
171482,415,459,462
171483,417,460,463
171484,415,460,459
171485,417,461,462
171486,420,461,461
171487,414,460,461
171488,419,461,461
171489,414,460,462
171490,421,460,460
171491,423,460,461
171492,423,460,459
171493,424,460,462
171494,421,461,461
171495,418,461,461
171496,417,461,459
171497,416,460,462
171498,410,460,461
171499,408,458,462
171500,399,461,463
171501,398,460,462
171502,398,458,460
171503,393,460,460
171504,396,460,461
171505,397,460,462
171506,401,460,460
171507,409,459,463
171508,412,462,461
171509,417,460,463
171510,419,461,462
171511,421,459,462
171512,420,460,460
171513,419,459,460
171514,417,461,460
171515,417,460,461
171516,416,459,462
171517,416,462,460
171518,414,460,460
171519,417,459,462
171520,417,460,462
171521,420,459,461
171522,423,460,462
171523,420,460,463
171524,421,462,461
171525,422,459,461
171526,421,460,462
171527,417,461,460
171528,417,461,462
171529,416,458,461
171530,411,461,461
171531,409,457,461
171532,409,461,460
171533,406,461,462
171534,401,459,462
171535,396,461,461
171536,389,460,461
171537,386,461,461
171538,383,460,459
171539,384,459,461
171540,387,460,461
171541,391,460,461
171542,399,461,462
171543,401,460,461
171544,410,459,462
171545,414,462,461
171546,419,460,461
171547,420,457,460
171548,425,460,462
171549,421,458,462
171550,421,457,461
171551,420,460,461
171552,415,461,461
171553,412,459,462
171554,405,458,463
171555,396,461,463
171556,387,461,460
171557,380,459,461
171558,375,460,459
171559,374,462,462
171560,376,461,462
171561,378,461,462
171562,377,462,461
171563,376,460,460
171564,376,461,461
171565,377,460,462
171566,375,457,462
171567,373,461,459
171568,370,461,461
171569,373,461,461
171570,375,461,459
171571,379,460,461
171572,380,460,462
171573,384,461,460
171574,386,459,461
171575,390,458,461
171576,397,459,462
171577,401,461,460
171578,402,462,461
171579,406,461,461
171580,411,458,463
171581,405,460,461
171582,404,460,461
171583,402,461,460
171584,402,459,463
171585,401,459,461
171586,401,460,461
171587,406,460,462
171588,407,461,461
171589,408,461,461
171590,408,462,461
171591,408,461,461
171592,407,459,460
171593,404,461,463
171594,405,462,462
171595,403,461,461
171596,400,460,460
171597,395,462,462
171598,389,459,462
171599,378,461,459
171600,365,461,461
171601,356,461,460
171602,355,460,462
171603,358,458,462
171604,370,460,461
171605,384,460,463
171606,391,461,462
171607,399,461,462
171608,405,461,458
171609,413,461,461
171610,415,460,461
171611,420,461,460
171612,425,459,462
171613,430,461,461
171614,431,459,459
171615,436,460,463
171616,439,461,464
171617,441,460,459
171618,446,461,463
171619,446,461,463
171620,446,461,462
171621,443,462,458
171622,440,459,462
171623,436,462,463
171624,431,461,460
171625,428,457,461
171626,425,462,462
171627,420,460,461
171628,410,461,459
171629,401,459,459
171630,386,461,461
171631,377,459,461
171632,367,461,463
171633,366,459,461
171634,368,460,463
171635,375,460,463
171636,377,462,461
171637,379,462,460
171638,381,459,462
171639,382,462,462
171640,388,460,462
171641,396,460,463
171642,404,458,462
171643,410,462,463
171644,415,461,460
171645,421,460,462
171646,424,461,462
171647,422,463,462
171648,419,461,461
171649,414,461,461
171650,415,462,461
171651,415,461,462
171652,413,459,461
171653,414,462,461
171654,412,462,461
171655,413,459,462
171656,409,460,462
171657,411,462,461
171658,409,461,462
171659,404,460,461
171660,400,459,460
171661,393,460,462
171662,386,460,460
171663,384,459,463
171664,388,461,461
171665,398,460,461
171666,412,460,461
171667,423,461,464
171668,430,461,462
171669,437,461,462
171670,442,460,462
171671,447,458,462
171672,445,461,461
171673,446,462,462
171674,439,459,462
171675,430,460,461
171676,424,460,461
171677,422,461,460
171678,419,461,460
171679,419,458,463
171680,423,459,462
171681,427,458,463
171682,428,461,461
171683,424,460,461
171684,435,461,460
171685,441,460,462
171686,451,459,462
171687,460,461,461
171688,470,460,463
171689,479,460,461
171690,485,460,460
171691,487,459,462
171692,486,460,462
171693,485,460,460
171694,485,461,460
171695,484,460,462
171696,487,462,461
171697,485,461,462
171698,482,460,461
171699,480,459,460
171700,478,459,462
171701,480,459,461
171702,485,462,461
171703,484,459,463
171704,482,461,460
171705,477,460,459
171706,472,460,463
171707,461,459,462
171708,454,459,461
171709,452,460,460
171710,454,461,460
171711,456,463,461
171712,457,460,460
171713,471,458,461
171714,480,459,460
171715,488,460,461
171716,496,460,460
171717,500,457,461
171718,501,460,461
171719,501,460,463
171720,501,461,463
171721,501,460,461
171722,503,461,461
171723,506,458,461
171724,513,459,461
171725,521,458,462
171726,530,462,461
171727,531,460,458
171728,537,459,461
171729,534,460,459
171730,534,460,461
171731,533,459,461
171732,532,459,458
171733,529,460,461
171734,529,459,458
171735,526,459,461
171736,523,460,461
171737,522,459,461
171738,520,459,462
171739,516,459,461
171740,519,460,460
171741,520,459,460
171742,527,458,461
171743,533,460,461
171744,535,459,462
171745,541,458,461
171746,541,460,460
171747,540,461,463
171748,535,459,461
171749,525,460,461
171750,517,460,461
171751,506,460,462
171752,503,460,462
171753,501,460,463
171754,505,460,459
171755,507,460,461
171756,509,460,461
171757,514,461,463
171758,516,456,461
171759,519,459,463
171760,524,458,462
171761,527,461,461
171762,532,462,463
171763,537,459,462
171764,542,457,460
171765,544,460,461
171766,547,460,461
171767,548,461,458
171768,551,460,462
171769,551,459,462
171770,551,460,464
171771,547,459,462
171772,542,461,459
171773,538,460,460
171774,537,459,463
171775,534,460,461
171776,535,459,461
171777,535,461,462
171778,531,461,460
171779,528,460,461
171780,521,460,461
171781,516,460,461
171782,512,460,462
171783,507,457,462
171784,509,460,462
171785,511,462,459
171786,518,459,457
171787,522,460,462
171788,527,459,459
171789,530,462,458
171790,529,460,461
171791,533,462,461
171792,533,459,462
171793,533,459,460
171794,535,460,462
171795,532,461,458
171796,533,461,462
171797,534,461,461
171798,532,458,461
171799,534,459,462
171800,536,460,460
171801,540,461,462
171802,543,460,463
171803,541,459,462
171804,540,460,458
171805,538,460,461
171806,536,457,460
171807,536,460,460
171808,536,460,461
171809,535,461,461
171810,531,460,461
171811,528,460,462
171812,520,461,462
171813,523,458,460
171814,526,461,461
171815,529,459,461
171816,530,459,461
171817,531,459,462
171818,532,462,459
171819,538,461,461
171820,538,457,461
171821,546,460,460
171822,546,460,462
171823,552,459,461
171824,553,459,462
171825,557,460,462
171826,561,458,461
171827,562,459,462
171828,563,462,462
171829,563,460,461
171830,560,460,459
171831,558,459,462
171832,558,459,462
171833,555,461,460
171834,552,461,460
171835,549,460,461
171836,547,459,462
171837,543,461,462
171838,548,461,460
171839,546,458,460
171840,547,459,463
171841,550,460,461
171842,552,461,461
171843,553,459,461
171844,554,460,460
171845,556,458,462
171846,555,460,460
171847,556,460,461
171848,556,459,462
171849,556,458,461
171850,553,461,461
171851,551,459,461
171852,544,461,462
171853,545,460,459
171854,544,461,461
171855,542,464,460
171856,541,461,462
171857,540,461,461
171858,539,459,459
171859,536,461,464
171860,537,459,461
171861,537,458,461
171862,535,459,460
171863,531,462,461
171864,527,458,461
171865,525,460,460
171866,521,458,461
171867,517,460,461
171868,511,456,462
171869,508,460,461
171870,503,459,462
171871,499,461,458
171872,496,460,459
171873,495,460,462
171874,491,457,461
171875,496,460,463
171876,495,459,462
171877,498,458,462
171878,503,459,460
171879,506,460,459
171880,508,460,461
171881,510,460,461
171882,513,460,462
171883,513,460,460
171884,516,460,462
171885,516,460,463
171886,516,460,462
171887,517,460,462
171888,517,460,462
171889,512,458,460
171890,507,460,461
171891,504,460,461
171892,500,462,462
171893,495,458,463
171894,489,460,461
171895,486,460,461
171896,480,460,462
171897,481,462,462
171898,480,461,462
171899,482,461,463
171900,485,459,462
171901,488,460,461
171902,490,461,461
171903,488,459,461
171904,491,460,460
171905,494,458,461
171906,497,460,462
171907,495,460,458
171908,496,460,461
171909,495,457,461
171910,493,460,460
171911,491,459,462
171912,489,459,461
171913,486,459,462
171914,483,460,462
171915,480,460,461
171916,479,460,460
171917,475,459,462
171918,474,460,464
171919,477,459,461
171920,477,457,461
171921,478,461,462
171922,477,460,461
171923,481,458,461
171924,483,460,459
171925,483,460,460
171926,484,461,462
171927,485,458,458
171928,484,461,459
171929,480,461,462
171930,479,460,461
171931,481,461,462
171932,476,459,459
171933,473,461,460
171934,473,460,462
171935,466,459,462
171936,461,459,464
171937,458,461,460
171938,460,461,463
171939,461,460,461
171940,463,459,460
171941,462,461,460
171942,468,458,461
171943,467,461,458
171944,469,460,459
171945,475,459,462
171946,474,461,461
171947,474,458,460
171948,475,460,458
171949,470,460,461
171950,469,461,461
171951,468,459,462
171952,464,459,459
171953,460,460,460
171954,459,459,463
171955,456,458,462
171956,455,461,461
171957,455,460,461
171958,454,459,460
171959,456,459,461
171960,453,460,461
171961,456,460,461
171962,457,460,461
171963,455,461,459
171964,456,460,460
171965,458,457,461
171966,455,459,460
171967,457,462,462
171968,457,459,463
171969,459,461,463
171970,458,457,460
171971,455,461,459
171972,454,461,461
171973,456,457,461
171974,455,460,460
171975,455,459,462
171976,455,459,462
171977,457,456,461
171978,458,460,459
171979,456,460,460
171980,461,461,460
171981,461,461,462
171982,462,460,461
171983,465,460,460
171984,465,460,462
171985,466,461,462
171986,465,461,461
171987,466,462,461
171988,464,458,461
171989,460,458,460
171990,454,460,461
171991,453,461,462
171992,448,461,457
171993,445,460,463
171994,442,458,460
171995,438,459,463
171996,435,462,462
171997,433,460,460
171998,431,460,461
171999,430,457,459
172000,429,458,461
172001,427,461,461
172002,437,459,462
172003,436,461,460
172004,439,461,461
172005,440,460,463
172006,446,460,461
172007,447,461,461
172008,451,460,463
172009,450,459,461
172010,446,459,462
172011,446,461,461
172012,442,462,457
172013,436,460,460
172014,437,459,461
172015,434,460,459
172016,436,460,460
172017,438,459,462
172018,438,460,462
172019,438,460,460
172020,441,461,461
172021,441,464,462
172022,445,460,460
172023,450,460,461
172024,451,460,462
172025,452,458,462
172026,453,459,461
172027,451,461,461
172028,454,458,462
172029,446,458,461
172030,441,461,461
172031,436,459,460
172032,431,460,460
172033,427,462,462
172034,425,459,461
172035,424,459,459
172036,424,459,461
172037,423,460,463
172038,424,461,459
172039,421,459,461
172040,420,457,461
172041,419,460,459
172042,420,459,462
172043,423,458,460
172044,424,461,463
172045,421,460,462
172046,422,458,462
172047,421,458,461
172048,420,460,461
172049,418,460,461
172050,413,460,461
172051,417,459,460
172052,412,459,463
172053,406,460,461
172054,409,460,462
172055,412,459,461
172056,411,458,462
172057,413,461,462
172058,413,457,461
172059,413,458,459
172060,417,458,462
172061,420,458,463
172062,419,453,461
172063,421,460,461
172064,420,460,462
172065,420,460,462
172066,421,460,460
172067,423,460,462
172068,422,460,461
172069,426,458,461
172070,426,458,461
172071,426,460,462
172072,427,461,462
172073,425,458,461
172074,424,460,459
172075,424,461,462
172076,425,462,461
172077,426,461,460
172078,428,462,462
172079,428,459,462
172080,431,460,461
172081,431,461,463
172082,431,458,462
172083,433,460,462
172084,433,460,461
172085,435,459,459
172086,436,460,461
172087,437,460,460
172088,436,460,461
172089,436,457,461
172090,432,462,462
172091,429,460,460
172092,429,460,462
172093,426,459,462
172094,422,461,461
172095,422,459,461
172096,419,460,457
172097,419,459,461
172098,418,458,461
172099,420,460,460
172100,416,460,463
172101,419,458,460
172102,420,460,459
172103,421,460,463
172104,424,460,461
172105,424,460,461
172106,427,458,461
172107,425,461,461
172108,423,460,462
172109,425,460,462
172110,422,460,461
172111,416,460,462
172112,414,457,461
172113,410,461,459
172114,408,460,461
172115,407,459,460
172116,404,459,461
172117,404,460,462
172118,403,460,457
172119,404,460,461
172120,405,460,461
172121,408,457,461
172122,411,459,461
172123,411,459,462
172124,414,457,461
172125,414,459,461
172126,417,460,461
172127,419,459,462
172128,417,461,462
172129,417,459,461
172130,415,459,460
172131,412,460,459
172132,409,459,460
172133,404,460,461
172134,401,461,461
172135,398,460,460
172136,391,461,459
172137,393,460,461
172138,392,458,461
172139,389,459,459
172140,391,463,463
172141,393,460,461
172142,392,459,461
172143,392,461,463
172144,395,460,462
172145,397,460,461
172146,399,458,460
172147,403,459,463
172148,405,459,460
172149,407,461,462
172150,404,461,460
172151,405,461,462
172152,406,460,462
172153,403,459,461
172154,403,458,460
172155,397,460,460
172156,397,460,462
172157,399,460,460
172158,399,458,459
172159,397,459,458
172160,401,459,462
172161,406,457,461
172162,407,461,460
172163,410,460,463
172164,411,459,459
172165,413,460,462
172166,416,459,461
172167,415,461,460
172168,419,461,461
172169,421,459,462
172170,413,461,460
172171,417,460,462
172172,416,460,461
172173,413,460,461
172174,409,460,462
172175,410,459,461
172176,410,461,461
172177,408,459,462
172178,410,460,459
172179,410,459,461
172180,414,460,460
172181,414,461,462
172182,419,459,461
172183,421,460,461
172184,421,460,461
172185,419,462,462
172186,420,461,461
172187,419,462,461
172188,415,461,460
172189,413,459,462
172190,407,460,460
172191,404,459,459
172192,400,459,461
172193,397,461,462
172194,392,456,461
172195,390,459,460
172196,386,460,462
172197,382,458,461
172198,378,462,462
172199,375,460,460
172200,373,460,461
172201,372,459,461
172202,374,462,462
172203,376,459,462
172204,373,461,462
172205,375,459,461
172206,374,459,459
172207,375,460,462
172208,371,457,463
172209,370,458,461
172210,364,460,462
172211,358,460,461
172212,353,460,460
172213,349,460,462
172214,343,460,460
172215,337,460,460
172216,336,460,463
172217,335,460,460
172218,335,458,462
172219,334,458,462
172220,336,460,460
172221,336,461,462
172222,340,458,463
172223,343,459,461
172224,348,458,460
172225,350,460,462
172226,354,461,461
172227,356,459,462
172228,362,460,463
172229,364,461,459
172230,367,457,459
172231,368,458,460
172232,370,460,463
172233,372,458,462
172234,372,459,461
172235,372,462,460
172236,372,461,461
172237,372,459,460
172238,374,461,461
172239,372,461,460
172240,374,462,462
172241,378,457,462
172242,381,460,461
172243,382,461,462
172244,389,459,461
172245,392,461,460
172246,395,461,462
172247,396,462,462
172248,398,460,462
172249,397,461,463
172250,398,461,462
172251,399,462,460
172252,398,462,462
172253,396,460,461
172254,395,460,461
172255,396,460,460
172256,396,461,461
172257,392,460,462
172258,394,460,462
172259,397,461,461
172260,398,461,461
172261,409,458,462
172262,414,462,460
172263,421,459,462
172264,427,459,462
172265,434,461,462
172266,442,457,461
172267,445,458,461
172268,450,460,462
172269,456,461,461
172270,459,461,462
172271,461,460,463
172272,462,460,463
172273,462,459,463
172274,461,461,461
172275,462,458,462
172276,460,460,461
172277,461,462,459
172278,462,461,458
172279,467,462,463
172280,469,461,462
172281,476,461,462
172282,480,461,461
172283,486,459,463
172284,493,459,461
172285,495,458,460
172287,509,461,462
172288,506,461,462
172289,510,460,462
172290,512,458,461
172291,510,460,462
172291,513,460,461
172292,514,459,460
172293,517,459,462
172294,519,460,462
172295,525,461,460
172296,530,461,461
172297,536,460,462
172298,541,461,461
172299,546,459,461
172300,550,459,461
172301,557,461,461
172302,557,461,461
172303,567,461,462
172304,572,459,461
172305,576,458,459
172306,581,459,460
172307,585,461,460
172308,591,460,461
172309,594,461,460
172310,596,460,461
172311,597,460,460
172312,599,462,459
172313,600,460,460
172314,604,462,460
172315,602,459,462
172316,608,460,461
172317,612,457,461
172318,616,461,461
172319,620,459,462
172320,626,460,461
172321,629,460,461
172322,630,460,461
172323,637,457,460
172324,642,459,462
172325,646,459,461
172326,649,460,461
172327,652,460,461
172328,654,460,462
172329,657,461,460
172330,658,461,462
172331,658,460,462
172332,655,460,461
172333,655,460,458
172334,655,460,462
172335,654,461,462
172336,654,461,459
172337,652,461,461
172338,650,460,458
172339,652,460,462
172340,650,461,460
172341,652,460,461
172342,655,462,460
172343,653,461,462
172344,653,461,460
172345,653,459,461
172346,650,460,463
172347,646,461,461
172348,644,462,460
172349,640,462,462
172350,636,460,462
172351,632,462,460
172352,631,461,461
172353,629,460,462
172354,627,460,459
172355,629,459,459
172356,631,459,461
172357,631,458,462
172358,630,460,460
172359,631,460,461
172360,634,460,461
172361,637,459,459
172362,641,460,460
172363,642,462,459
172364,645,461,461
172365,648,460,461
172366,651,460,462
172367,649,461,463
172368,648,459,463
172369,650,460,462
172370,651,457,461
172371,650,461,461
172372,649,457,460
172373,647,461,460
172374,646,461,462
172375,645,457,461
172376,644,460,462
172377,645,461,461
172378,644,457,460
172379,642,459,462
172380,642,459,461
172381,645,460,460
172382,647,460,462
172383,646,458,461
172384,647,460,462
172385,648,461,461
172386,649,457,461
172387,647,460,460
172388,647,459,461
172389,649,459,460
172390,647,459,459
172391,643,460,461
172392,640,460,463
172393,639,459,459
172394,636,460,462
172395,635,459,461
172396,631,460,461
172397,631,460,461
172398,627,460,460
172399,627,457,460
172400,624,460,459
172401,621,457,461
172402,619,460,462
172403,617,461,461
172404,619,458,461
172405,618,461,461
172406,616,460,461
172407,617,460,461
172408,617,461,460
172409,613,459,460
172410,615,457,461
172411,609,460,461
172412,608,460,460
172413,605,459,462
172414,601,460,461
172415,594,458,462
172416,587,460,462
172417,584,460,462
172418,578,457,463
172419,572,461,463
172420,567,460,461
172421,561,459,461
172422,555,460,460
172423,553,460,462
172424,549,458,465
172425,546,460,459
172426,543,461,462
172427,539,458,460
172428,538,460,463
172429,535,460,460
172430,532,458,462
172431,528,459,462
172432,528,459,462
172433,522,460,462
172434,516,460,462
172435,512,460,461
172436,507,461,462
172437,502,459,460
172438,501,459,462
172439,497,461,460
172440,491,459,462
172441,493,461,462
172442,488,461,462
172443,485,460,463
172444,486,458,461
172445,487,460,463
172446,479,460,461
172447,477,460,459
172448,474,460,461
172449,472,459,461
172450,468,461,457
172451,465,459,462
172452,461,459,460
172453,458,460,461
172454,453,461,460
172455,452,460,462
172456,449,457,461
172457,449,459,460
172458,444,457,461
172459,443,456,461
172460,439,460,461
172461,439,460,461
172462,439,459,461
172463,438,459,461
172464,437,459,461
172465,438,460,460
172466,435,462,461
172467,437,460,461
172468,433,458,460
172469,433,460,461
172470,430,459,459
172471,430,457,461
172472,425,460,460
172473,422,459,460
172474,415,457,460
172475,414,459,461
172476,415,458,463
172477,412,461,459
172478,410,460,461
172479,407,460,461
172480,403,458,461
172481,400,459,460
172482,395,460,463
172483,396,459,462
172484,391,460,461
172485,391,460,461
172486,388,457,460
172487,387,460,461
172488,388,460,461
172489,385,458,461
172490,387,460,460
172491,387,459,458
172492,389,459,461
172493,386,461,461
172494,385,461,461
172495,383,458,462
172496,382,459,462
172497,382,461,461
172498,380,461,462
172499,381,458,460
172500,380,460,462
172501,382,461,460
172502,381,459,461
172503,382,458,460
172504,383,460,464
172505,379,460,461
172506,380,461,460
172507,381,461,462
172508,380,457,460
172509,379,459,462
172510,377,461,462
172511,376,461,461
172512,375,460,462
172513,375,460,460
172514,374,461,462
172515,373,460,459
172516,372,460,460
172517,369,462,460
172518,374,461,462
172519,373,460,461
172520,371,460,463
172521,372,457,460
172522,371,459,462
172523,373,461,463
172524,372,460,462
172525,370,461,459
172526,372,460,461
172527,372,460,461
172528,370,461,462
172529,366,461,461
172530,365,460,460
172531,362,458,463
172532,358,461,462
172533,358,461,462
172534,354,461,461
172535,349,462,462
172536,346,460,463
172537,347,456,460
172538,347,461,460
172539,348,460,461
172540,349,460,460
172541,348,459,463
172542,351,458,461
172543,352,458,462
172544,356,461,463
172545,357,460,461
172546,358,461,463
172547,360,461,462
172548,362,462,461
172549,363,460,463
172550,362,460,461
172551,365,461,460
172552,365,458,462
172553,365,459,461
172554,368,461,459
172555,367,461,460
172556,365,461,462
172557,368,461,461
172558,367,460,462
172559,366,460,461
172560,367,462,462
172561,365,460,461
172562,364,459,461
172563,363,459,462
172564,365,460,461
172565,365,460,462
172566,364,460,459
172567,365,460,462
172568,366,460,460
172569,368,459,461
172570,371,459,462
172571,372,460,461
172572,371,460,461
172573,367,461,462
172574,367,460,459
172575,366,457,461
172576,363,461,461
172577,361,462,461
172578,365,461,462
172579,367,459,461
172580,368,462,459
172581,368,460,462
172582,370,461,461
172583,371,463,462
172584,374,459,462
172585,374,460,460
172586,376,461,462
172587,376,460,460
172588,376,461,461
172589,378,459,460
172590,381,461,462
172591,380,460,462
172592,380,459,461
172593,380,461,461
172594,379,459,462
172595,381,461,461
172596,381,461,461
172597,380,460,462
172598,381,459,460
172599,384,460,462
172600,385,458,462
172601,387,460,461
172602,387,460,462
172603,393,461,460
172604,396,461,461
172605,395,460,461
172606,396,460,460
172607,396,457,461
172608,396,460,461
172609,397,458,462
172610,398,460,462
172611,396,461,457
172612,396,460,460
172613,395,460,461
172614,395,459,462
172615,393,461,462
172616,390,460,462
172617,391,461,461
172618,389,456,461
172619,391,461,460
172620,390,459,461
172621,392,461,459
172622,391,461,460
172623,395,459,462
172624,397,459,462
172625,400,460,461
172626,401,461,465
172627,408,462,461
172628,408,458,461
172629,413,459,460
172630,417,460,462
172631,419,462,462
172632,418,459,460
172633,417,460,461
172634,411,460,464
172635,411,460,460
172636,409,461,460
172637,409,461,461
172638,406,462,460
172639,406,457,462
172640,407,461,462
172641,406,460,461
172642,402,460,460
172643,411,460,461
172644,409,460,460
172645,415,459,462
172646,418,461,462
172647,423,460,462
172648,419,461,461
172649,421,461,461
172650,424,460,462
172651,423,460,462
172652,421,461,459
172653,421,461,462
172654,422,460,461
172655,422,461,461
172656,420,459,459
172657,420,461,460
172658,420,459,461
172659,421,461,461
172660,425,460,461
172661,425,462,463
172662,428,458,461
172663,428,463,460
172664,429,459,461
172665,431,461,462
172666,431,460,461
172667,431,462,462
172668,430,458,461
172669,431,459,460
172670,430,460,459
172671,431,460,462
172672,430,461,462
172673,433,462,461
172674,435,457,462
172675,435,461,458
172676,439,458,462
172677,439,461,459
172678,439,460,460
172679,440,461,461
172680,439,460,460
172681,440,460,461
172682,440,460,462
172683,441,460,461
172684,440,460,459
172685,441,460,460
172686,441,463,460
172687,441,461,460
172688,441,463,459
172689,440,458,459
172690,440,461,462
172691,438,461,461
172692,439,458,460
172693,440,461,462
172694,439,458,460
172695,442,458,461
172696,444,462,461
172697,449,461,460
172698,449,464,460
172699,450,459,460
172700,449,462,461
172701,452,460,461
172702,450,459,461
172703,447,460,459
172704,449,460,460
172705,444,462,462
172706,440,460,459
172707,436,461,461
172708,433,459,461
172709,433,460,462
172710,427,459,460
172711,428,460,460
172712,426,457,459
172713,422,462,463
172714,422,461,460
172715,422,460,462
172716,421,460,460
172717,422,461,460
172718,423,461,460
172719,424,461,462
172720,424,463,461
172721,425,460,462
172722,426,458,461
172723,423,462,462
172724,425,461,459
172725,424,460,459
172726,422,462,462
172727,423,460,462
172728,424,461,462
172729,424,461,461
172730,425,460,458
172731,423,461,460
172732,423,459,461
172733,424,461,461
172734,422,461,459
172735,422,460,461
172736,419,460,461
172737,420,459,460
172738,420,461,461
172739,424,460,460
172740,423,461,461
172741,425,460,461
172742,425,460,462
172743,428,458,461
172744,432,461,460
172745,430,460,461
172746,435,460,461
172747,432,460,461
172748,436,458,461
172749,435,461,459
172750,434,462,462
172751,434,463,461
172752,430,461,463
172753,431,460,461
172754,428,460,463
172755,430,462,462
172756,426,460,461
172757,426,459,461
172758,428,461,462
172759,425,461,460
172760,426,461,461
172761,427,459,460
172762,423,461,462
172763,424,460,462
172764,429,462,460
172765,429,459,461
172766,432,461,460
172767,433,460,461
172768,434,461,460
172769,434,459,461
172770,436,459,461
172771,435,460,461
172772,434,460,461
172773,432,460,461
172774,430,461,461
172775,431,460,461
172776,431,461,459
172777,428,460,459
172778,429,460,462
172779,429,455,460
172780,427,459,462
172781,428,459,460
172782,432,459,461
172783,431,460,459
172784,438,461,462
172785,441,461,456
172786,443,462,462
172787,443,461,461
172788,447,460,460
172789,448,460,460
172790,445,458,460
172791,441,460,463
172792,435,461,461
172793,430,462,460
172794,422,461,463
172795,420,458,461
172796,416,460,462
172797,414,458,461
172798,411,460,461
172799,412,460,460
172800,414,459,461
172801,413,459,461
172802,414,462,461
172803,417,460,461
172804,415,459,462
172805,418,460,461
172806,419,460,460
172807,420,460,461
172808,422,461,461
172809,422,460,461
172810,425,459,461
172811,423,459,460
172812,423,460,460
172813,421,461,463
172814,422,457,460
172815,421,460,462
172816,421,462,461
172817,419,460,459
172818,420,458,460
172819,420,460,460
172820,420,460,461
172821,421,461,461
172822,423,458,461
172823,424,461,461
172824,424,458,460
172825,425,460,462
172826,424,460,461
172827,425,461,463
172828,425,460,460
172829,425,462,462
172830,428,458,461
172831,424,461,461
172832,423,462,464
172833,423,460,461
172834,424,459,461
172835,420,462,460
172836,423,460,461
172837,423,459,461
172838,423,460,462
172839,424,458,461
172840,421,460,463
172841,424,460,460
172842,426,461,462
172843,425,459,460
172844,422,460,462
172845,425,458,461
172846,425,460,462
172847,427,460,462
172848,426,459,461
172849,425,459,461
172850,424,459,461
172851,424,461,460
172852,424,462,463
172853,422,458,460
172854,424,460,462
172855,423,459,461
172856,424,460,462
172857,424,457,461
172858,427,458,462
172859,427,460,459
172860,429,460,462
172861,430,461,463
172862,432,459,463
172863,434,460,461
172864,433,459,461
172865,434,461,459
172866,432,461,457
172867,431,459,461
172868,432,458,460
172869,425,461,461
172870,423,460,461
172871,420,460,462
172872,416,460,464
172873,418,461,461
172874,416,460,462
172875,416,461,461
172876,412,460,458
172877,416,461,461
172878,417,459,462
172879,416,459,463
172880,414,460,458
172881,419,459,462
172882,419,459,461
172883,423,457,461
172884,423,460,459
172885,428,459,460
172886,429,459,462
172887,430,459,461
172888,430,460,461
172889,431,460,463
172890,430,461,458
172891,430,460,464
172892,426,457,461
172893,426,460,461
172894,423,459,463
172895,420,458,461
172896,420,460,460
172897,422,459,462
172898,420,459,462
172899,421,460,460
172900,423,457,461
172901,426,460,460
172902,428,458,460
172903,430,461,462
172904,433,462,462
172905,436,461,461
172906,440,461,461
172907,441,460,460
172908,444,460,463
172909,447,461,460
172910,449,459,462
172911,451,459,462
172912,447,459,459
172913,448,463,462
172914,445,459,462
172915,444,460,460
172916,441,459,459
172917,439,459,461
172918,436,460,459
172919,435,458,461
172920,435,459,461
172921,431,459,461
172922,435,460,460
172923,436,461,461
172924,437,460,460
172925,438,460,461
172926,438,461,462
172927,438,462,462
172928,440,453,462
172929,434,460,463
172930,436,460,463
172931,431,458,463
172932,430,460,462
172933,425,461,463
172934,423,458,462
172935,426,459,461
172936,422,458,461
172937,419,458,463
172938,421,460,460
172939,422,460,459
172940,423,460,463
172941,423,460,460
172942,425,462,462
172943,426,459,462
172944,430,460,460
172945,431,459,462
172946,432,459,461
172947,434,459,461
172948,439,459,461
172949,436,460,461
172950,440,460,461
172951,439,459,461
172952,443,461,461
172953,443,462,462
172954,443,460,462
172955,442,458,462
172956,443,460,462
172957,445,459,460
172958,442,457,461
172959,444,459,462
172960,442,459,462
172961,447,460,462
172962,447,460,463
172963,452,461,463
172964,455,460,458
172965,460,460,461
172966,464,462,461
172967,465,460,461
172968,468,459,463
172969,469,461,461
172970,467,459,461
172971,465,459,462
172972,461,457,462
172973,455,461,458
172974,450,460,461
172975,447,462,460
172976,444,457,462
172977,442,460,459
172978,443,461,461
172979,445,461,462
172980,444,461,461
172981,446,457,462
172982,448,460,460
172983,449,460,459
172984,451,460,461
172985,451,461,461
172986,452,459,462
172987,448,460,461
172988,449,460,461
172989,447,464,459
172990,450,461,462
