Time (ms),Bicep,Shoulder,Tricep
813501,455,459,462
813502,457,461,460
813503,455,460,462
813504,459,460,461
813505,461,460,461
813506,461,461,460
813507,462,459,462
813508,461,460,461
813509,456,459,462
813510,459,460,462
813511,454,460,461
813512,457,460,462
813513,454,460,463
813514,453,461,462
813515,453,461,462
813516,451,462,462
813517,452,459,461
813518,453,459,462
813519,452,460,462
813520,455,460,462
813521,456,461,462
813522,458,461,460
813523,459,461,460
813524,460,462,460
813525,462,460,463
813526,462,459,461
813527,462,458,462
813528,463,458,462
813529,460,460,462
813530,461,461,460
813531,457,460,462
813532,456,457,461
813533,454,460,461
813534,452,462,462
813535,450,459,459
813536,448,461,463
813537,449,460,460
813538,451,458,462
813539,452,461,462
813540,455,460,461
813541,456,460,461
813542,456,460,462
813543,458,461,462
813544,460,460,462
813545,462,459,462
813546,462,460,461
813547,462,461,459
813548,462,461,461
813549,460,459,462
813550,458,460,461
813551,456,458,461
813552,456,459,462
813553,451,459,461
813554,449,459,462
813555,450,460,461
813556,451,461,463
813557,450,459,460
813558,448,460,463
813559,453,459,460
813560,451,462,460
813561,456,459,462
813562,457,460,462
813563,457,461,462
813564,460,459,462
813565,460,462,462
813566,463,462,462
813567,463,461,462
813568,460,460,462
813569,463,459,461
813570,461,460,460
813571,459,461,460
813572,453,461,463
813573,455,462,460
813574,453,459,462
813575,452,461,460
813576,450,460,462
813577,447,459,461
813578,449,461,461
813579,451,460,460
813580,454,460,463
813581,453,459,461
813582,456,460,460
813583,459,460,462
813584,460,460,462
813585,460,459,461
813586,460,461,463
813587,460,461,460
813588,460,460,463
813589,460,460,460
813590,458,461,462
813591,458,460,462
813592,455,460,462
813593,451,460,461
813594,454,459,461
813595,449,461,462
813596,450,460,460
813597,448,461,463
813598,451,459,462
813599,453,461,461
813600,453,460,461
813601,455,460,459
813602,457,460,461
813603,459,460,462
813604,461,461,460
813605,462,461,460
813606,462,460,459
813607,463,460,462
813608,465,460,461
813609,464,461,461
813610,461,462,461
813611,459,461,460
813612,456,460,458
813613,455,461,459
813614,452,461,459
813615,450,461,459
813616,450,460,462
813617,452,461,460
813618,451,460,459
813619,452,461,458
813620,454,462,459
813621,455,461,461
813622,457,460,461
813623,459,458,461
813624,462,459,462
813625,460,460,461
813626,460,459,457
813627,463,460,462
813628,460,460,462
813629,463,461,462
813630,461,457,460
813631,459,460,461
813632,459,460,460
813633,456,459,461
813634,453,458,461
813635,452,461,461
813636,452,458,461
813637,450,457,459
813638,450,462,461
813639,453,461,462
813640,454,462,462
813641,456,460,460
813642,458,459,463
813643,461,460,462
813644,461,459,461
813645,463,462,462
813646,463,460,460
813647,462,459,461
813648,462,458,460
813649,459,461,463
813650,457,462,460
813651,459,462,459
813652,455,461,461
813653,455,461,461
813654,453,462,461
813655,453,460,460
813656,449,460,461
813657,451,462,461
813658,452,460,460
813659,452,461,462
813660,453,460,462
813661,455,460,459
813662,456,461,461
813663,459,458,460
813664,461,461,462
813665,461,461,461
813666,464,459,459
813667,464,459,461
813668,463,461,461
813669,462,460,461
813670,462,461,461
813671,459,461,461
813672,457,460,461
813673,455,460,459
813674,454,460,460
813675,453,460,461
813676,451,461,462
813677,451,461,461
813678,454,461,461
813679,454,459,460
813680,454,461,460
813681,456,460,461
813682,457,457,460
813683,460,460,461
813684,460,460,460
813685,462,461,462
813686,463,459,462
813687,464,461,463
813688,463,461,462
813689,464,458,460
813690,461,461,460
813691,460,462,461
813692,462,461,461
813693,457,460,461
813694,455,459,461
813695,453,460,461
813696,452,460,460
813697,451,460,462
813698,451,459,460
813699,452,460,462
813700,454,460,462
813701,456,460,461
813702,458,461,460
813703,460,460,462
813704,461,461,462
813705,463,460,460
813706,464,459,459
813707,463,460,461
813708,464,458,461
813709,463,460,462
813710,462,460,462
813711,460,459,461
813712,459,462,461
813713,457,460,462
813714,455,460,460
813715,454,460,461
813716,453,461,460
813717,449,459,459
813718,450,461,458
813719,451,462,458
813720,451,460,460
813721,457,459,461
813722,457,459,461
813723,461,459,460
813724,461,458,460
813725,460,461,460
813726,463,461,460
813727,463,460,462
813728,465,461,461
813729,463,460,461
813730,461,461,460
813731,461,461,461
813732,458,461,458
813733,454,460,462
813734,454,460,459
813735,453,461,461
813736,452,461,460
813737,452,460,462
813738,453,462,461
813739,452,461,462
813740,453,460,461
813741,454,459,462
813742,459,460,459
813743,460,460,462
813744,462,459,462
813745,463,460,463
813746,466,460,463
813747,464,461,461
813748,465,460,460
813749,464,462,461
813750,461,460,460
813751,462,461,463
813752,459,461,462
813753,457,461,462
813754,455,459,460
813755,454,462,462
813756,453,460,461
813757,451,460,462
813758,449,460,460
813759,452,460,462
813760,455,458,462
813761,456,460,461
813762,457,460,461
813763,458,461,461
813764,462,460,461
813765,464,460,461
813766,464,462,462
813767,464,460,462
813768,462,461,462
813769,464,459,462
813770,462,459,462
813771,460,459,460
813772,459,461,461
813773,457,460,463
813774,456,460,462
813775,451,459,462
813776,452,460,461
813777,451,459,462
813778,453,461,462
813779,452,459,462
813780,454,461,462
813781,457,460,459
813782,457,461,461
813783,459,460,461
813784,461,460,461
813785,463,460,458
813786,464,461,459
813787,464,459,460
813788,466,461,461
813789,462,461,461
813790,463,461,461
813791,462,461,458
813792,460,462,462
813793,458,461,462
813794,456,461,461
813795,454,461,461
813796,454,461,461
813797,453,462,461
813798,454,461,461
813799,453,461,462
813800,455,462,461
813801,455,460,461
813802,458,461,462
813803,458,462,462
813804,460,462,459
813805,460,461,461
813806,463,461,462
813807,463,461,461
813808,463,459,462
813809,464,461,462
813810,463,460,462
813811,461,458,462
813812,460,463,461
813813,455,460,460
813814,456,461,462
813815,456,460,461
813816,453,461,462
813817,453,459,461
813818,453,461,458
813819,455,460,461
813820,455,461,460
813821,457,461,461
813822,459,462,460
813823,459,461,461
813824,463,461,462
813825,465,461,460
813826,464,461,461
813827,466,461,461
813828,467,460,462
813829,466,461,462
813830,465,461,462
813831,463,459,461
813832,461,460,461
813833,457,462,461
813834,456,460,461
813835,454,461,460
813836,453,462,461
813837,453,461,459
813838,453,462,460
813839,452,460,458
813840,454,461,459
813841,455,460,463
813842,459,461,461
813843,460,459,461
813844,461,461,460
813845,463,461,461
813846,463,462,462
813847,465,461,460
813848,464,461,461
813849,465,465,460
813850,466,459,461
813851,462,461,461
813852,460,458,461
813853,456,459,462
813854,457,459,462
813855,452,461,462
813856,455,461,462
813857,453,462,460
813858,453,460,462
813859,451,461,461
813860,455,462,462
813861,458,461,462
813862,458,461,462
813863,460,459,462
813864,464,461,462
813865,463,460,462
813866,466,460,462
813867,466,459,462
813868,466,460,462
813869,466,461,462
813870,463,461,462
813871,464,461,462
813872,461,460,462
813873,459,459,460
813874,458,459,462
813875,456,461,460
813876,457,462,461
813877,456,457,462
813878,458,458,462
813879,458,461,461
813880,459,460,462
813881,464,461,461
813882,468,459,460
813883,469,461,461
813884,471,461,461
813885,475,459,463
813886,475,459,461
813887,477,459,461
813888,475,460,461
813889,477,460,460
813890,476,462,465
813891,475,461,461
813892,470,460,460
813893,471,460,461
813894,464,460,462
813895,465,462,462
813896,465,458,462
813897,462,461,459
813898,463,461,462
813899,463,460,460
813900,465,462,460
813901,466,460,462
813902,470,462,462
813903,471,462,461
813904,475,461,461
813905,479,461,459
813906,481,461,461
813907,481,461,460
813908,485,461,462
813909,486,462,461
813910,487,462,462
813911,487,461,461
813912,488,461,461
813913,489,460,463
813914,488,462,462
813915,484,460,462
813916,481,458,461
813917,479,460,461
813918,480,460,461
813919,484,461,461
813920,487,460,462
813921,488,460,462
813922,487,461,462
813923,492,461,462
813924,490,458,460
813925,488,459,460
813926,486,459,461
813927,487,461,461
813928,485,461,460
813929,484,461,461
813930,479,460,462
813931,474,460,462
813932,469,460,461
813933,469,462,463
813934,466,462,460
813935,466,461,460
813936,468,459,459
813937,471,460,462
813938,474,461,461
813939,475,460,461
813940,478,459,461
813941,481,461,460
813942,487,461,460
813943,492,461,461
813944,495,461,460
813945,496,461,461
813946,496,460,460
813947,496,459,459
813948,489,459,461
813949,486,462,460
813950,476,460,462
813951,475,460,463
813952,471,459,461
813953,463,460,463
813954,461,460,463
813955,458,459,461
813956,455,460,462
813957,456,459,459
813958,458,461,462
813959,458,461,462
813960,464,460,461
813961,467,459,463
813962,473,461,462
813963,479,461,460
813964,487,461,461
813965,493,461,460
813966,493,462,462
813967,495,462,460
813968,497,460,462
813969,494,459,462
813970,493,461,461
813971,490,460,463
813972,482,461,461
813973,475,460,458
813974,475,461,460
813975,477,460,462
813976,477,461,460
813977,475,458,463
813978,476,458,461
813979,477,458,460
813980,482,460,460
813981,490,461,461
813982,494,460,461
813983,495,460,461
813984,495,460,461
813985,493,459,461
813986,490,461,462
813987,487,460,462
813988,484,460,462
813989,481,460,459
813990,475,461,461
813991,472,460,461
813992,470,462,462
813993,468,460,462
813994,470,460,460
813995,475,459,462
813996,480,461,462
813997,483,462,460
813998,491,461,457
813999,496,460,459
814000,501,461,461
814001,507,460,461
814002,511,461,462
814003,512,460,461
814004,511,460,462
814005,510,459,462
814006,505,460,459
814007,501,461,459
814008,497,461,461
814009,493,460,461
814010,487,461,461
814011,481,460,463
814012,477,462,462
814013,473,460,459
814014,470,459,460
814015,469,461,457
814016,474,460,461
814017,477,461,461
814018,481,461,463
814019,486,460,461
814020,490,460,460
814021,496,461,459
814022,499,460,459
814023,502,460,461
814024,502,460,459
814025,498,460,461
814026,493,461,458
814027,489,460,460
814028,482,460,462
814029,478,461,462
814030,470,459,460
814031,465,460,459
814032,465,459,461
814033,465,460,462
814034,466,461,460
814035,467,460,461
814036,476,460,462
814037,475,461,460
814038,477,460,461
814039,481,460,462
814040,482,458,461
814041,484,460,462
814042,484,460,461
814043,485,460,461
814044,486,458,464
814045,485,461,460
814046,489,460,460
814047,491,461,460
814048,494,460,461
814049,496,457,461
814050,496,460,459
814051,494,460,460
814052,504,461,463
814053,508,461,460
814054,509,461,462
814055,507,462,462
814056,501,460,461
814057,501,462,459
814058,496,460,461
814059,496,461,462
814060,492,461,461
814061,487,460,462
814062,484,460,461
814063,483,462,462
814064,479,460,461
814065,476,460,462
814066,480,460,461
814067,484,459,462
814068,489,459,462
814069,495,461,462
814070,496,458,461
814071,500,462,458
814072,500,461,462
814073,500,459,461
814074,495,460,460
814075,488,461,460
814076,484,461,460
814077,483,460,460
814078,481,460,462
814079,477,461,462
814080,472,462,462
814081,472,460,462
814082,475,462,461
814083,476,459,462
814084,483,459,462
814085,487,461,461
814086,489,459,461
814087,490,460,461
814088,491,461,463
814089,494,461,460
814090,494,461,459
814091,489,460,460
814092,483,461,462
814093,476,459,461
814094,472,460,462
814095,468,461,462
814096,464,461,461
814097,464,461,461
814098,461,460,463
814099,459,460,462
814100,458,459,462
814101,457,460,462
814102,455,460,460
814103,460,461,462
814104,459,457,461
814105,461,462,461
814106,463,460,462
814107,468,460,462
814108,471,459,462
814109,475,459,460
814110,474,462,462
814111,474,460,461
814112,475,460,462
814113,470,460,461
814114,465,460,461
814115,461,461,461
814116,454,460,461
814117,448,459,460
814118,443,461,461
814119,440,460,461
814120,438,460,462
814121,438,459,461
814122,440,459,462
814123,444,461,461
814124,446,459,461
814125,445,460,458
814126,447,459,461
814127,448,460,461
814128,448,456,462
814129,447,458,461
814130,447,460,460
814131,450,459,461
814132,450,461,462
814133,452,459,459
814134,454,461,461
814135,456,460,461
814136,456,460,457
814137,459,461,461
814138,459,461,464
814139,455,460,463
814140,448,460,460
814141,447,459,463
814142,446,460,462
814143,444,459,460
814144,442,460,462
814145,440,461,462
814146,440,460,462
814147,441,459,461
814148,441,461,461
814149,441,458,462
814150,442,460,462
814151,443,460,460
814152,446,459,461
814153,443,459,462
814154,449,460,459
814155,446,460,459
814156,444,460,461
814157,446,461,462
814158,443,459,460
814159,443,460,462
814160,444,462,457
814161,446,458,462
814162,451,458,463
814163,453,460,461
814164,463,460,461
814165,466,460,461
814166,468,460,462
814167,464,460,460
814168,458,460,462
814169,448,461,462
814170,440,459,462
814171,435,459,462
814172,429,457,460
814173,425,461,462
814174,422,460,462
814175,424,460,460
814176,423,459,461
814177,426,461,460
814178,429,460,462
814179,434,458,462
814180,437,459,462
814181,442,460,462
814182,443,460,459
814183,448,461,461
814184,452,462,461
814185,452,462,462
814186,450,461,462
814187,449,458,462
814188,447,460,459
814189,448,460,462
814190,446,460,460
814191,448,460,461
814192,448,460,461
814193,450,459,462
814194,454,459,461
814195,454,460,460
814196,458,461,461
814197,457,460,462
814198,464,460,462
814199,464,461,462
814200,466,460,462
814201,466,460,462
814202,465,458,461
814203,463,457,462
814204,458,460,462
814205,461,460,461
814206,467,461,462
814207,466,461,462
814208,469,460,460
814209,468,462,460
814210,467,461,461
814211,466,460,461
814212,462,461,457
814213,458,460,463
814214,456,460,462
814215,455,457,462
814216,454,460,461
814217,457,461,462
814218,458,461,462
814219,459,460,462
814220,461,461,460
814221,461,461,461
814222,460,460,462
814223,462,461,462
814224,458,460,463
814225,458,460,462
814226,456,460,461
814227,453,458,461
814228,452,460,460
814229,456,460,461
814230,459,461,460
814231,459,460,463
814232,462,460,462
814233,463,460,462
814234,464,461,461
814235,463,463,461
814236,459,461,461
814237,456,460,462
814238,449,461,461
814239,444,461,461
814240,442,459,461
814241,441,459,463
814242,445,458,461
814243,449,459,460
814244,452,461,461
814245,459,460,463
814246,464,461,459
814247,469,461,462
814248,471,459,460
814249,472,457,461
814250,468,461,463
814251,466,458,462
814252,453,460,461
814253,449,458,463
814254,442,460,463
814255,438,460,462
814256,436,458,461
814257,434,458,461
814258,438,458,461
814259,440,461,460
814260,446,459,461
814261,448,461,460
814262,454,461,459
814263,465,461,461
814264,471,462,462
814265,476,461,460
814266,477,461,461
814267,477,458,461
814268,475,462,460
814269,475,457,461
814270,474,461,461
814271,473,462,462
814272,470,461,461
814273,470,460,462
814274,469,460,459
814275,467,461,459
814276,465,457,461
814277,461,460,459
814278,457,459,461
814279,451,461,463
814280,451,461,462
814281,452,460,462
814282,452,461,461
814283,453,460,463
814284,458,460,462
814285,463,462,462
814286,468,460,462
814287,476,458,461
814288,484,457,462
814289,489,462,461
814290,494,461,461
814291,492,460,460
814292,488,461,460
814293,483,461,460
814294,479,462,462
814295,479,461,461
814296,479,460,458
814297,481,460,462
814298,483,460,461
814299,486,459,461
814300,484,460,462
814301,481,460,461
814302,480,461,460
814303,479,460,462
814304,481,460,459
814305,486,458,461
814306,490,460,460
814307,495,461,461
814308,499,460,460
814309,496,462,460
814310,494,461,458
814311,489,461,463
814312,479,461,461
814313,476,461,460
814314,471,461,459
814315,467,461,463
814316,464,460,464
814317,464,462,461
814318,465,461,462
814319,467,460,462
814320,468,458,462
814321,465,460,462
814322,468,460,461
814323,467,459,460
814324,469,460,462
814325,468,460,461
814326,468,460,461
814327,471,460,461
814328,472,461,460
814329,472,461,460
814330,473,464,461
814331,472,461,462
814332,471,456,460
814333,468,460,460
814334,470,460,462
814335,465,460,462
814336,466,458,461
814337,468,461,460
814338,469,461,461
814339,470,460,461
814340,468,458,461
814341,464,460,462
814342,464,461,461
814343,468,460,460
814344,472,462,460
814345,474,461,462
814346,476,460,463
814347,474,461,460
814348,478,463,462
814349,477,460,462
814350,474,459,462
814351,474,461,462
814352,471,459,461
814353,464,460,462
814354,459,460,460
814355,459,459,460
814356,457,459,462
814357,457,461,461
814358,457,460,458
814359,459,461,461
814360,459,460,461
814361,459,460,461
814362,460,460,460
814363,467,460,463
814364,475,460,462
814365,482,459,461
814366,486,458,462
814367,489,460,460
814368,489,459,460
814369,493,461,460
814370,492,461,461
814371,486,460,458
814372,484,461,461
814373,479,461,461
814374,476,462,460
814375,470,462,461
814376,466,460,462
814377,462,461,461
814378,458,460,458
814379,453,461,461
814380,455,463,462
814381,457,462,460
814382,458,461,462
814383,459,459,462
814384,462,459,461
814385,463,460,462
814386,464,460,462
814387,464,457,461
814388,467,460,462
814389,468,462,462
814390,467,460,462
814391,464,459,462
814392,465,460,461
814393,463,461,462
814394,461,461,462
814395,458,462,461
814396,460,460,460
814397,461,461,462
814398,462,462,460
814399,465,461,461
814400,465,460,462
814401,469,460,460
814402,469,459,462
814403,471,460,462
814404,469,462,460
814405,467,461,459
814406,471,460,462
814407,472,460,462
814408,473,460,462
814409,477,460,461
814410,479,460,460
814411,481,462,461
814412,481,460,460
814413,485,460,459
814414,488,460,462
814415,489,460,461
814416,496,461,461
814417,497,460,462
814418,500,460,462
814419,503,461,460
814420,507,458,461
814421,509,462,459
814422,512,461,462
814423,514,460,460
814424,509,460,462
814425,508,460,459
814426,504,461,461
814427,499,460,462
814428,496,460,461
814429,497,459,462
814430,495,460,462
814431,500,461,462
814432,498,460,462
814433,501,460,462
814434,495,461,461
814435,494,460,461
814436,492,462,462
814437,489,462,461
814438,488,461,461
814439,484,462,461
814440,486,460,461
814441,484,460,460
814442,482,459,463
814443,476,461,460
814444,475,459,461
814445,471,460,460
814446,471,461,463
814447,470,459,461
814448,470,458,462
814449,469,461,462
814450,468,460,461
814451,467,459,462
814452,466,461,461
814453,461,461,460
814454,460,461,460
814455,457,461,460
814456,454,460,461
814457,449,461,462
814458,446,461,461
814459,443,459,461
814460,441,461,462
814461,443,461,462
814462,443,458,461
814463,453,459,462
814464,459,460,459
814465,465,460,460
814466,467,461,461
814467,476,461,461
814468,479,460,461
814469,484,460,462
814470,483,459,461
814471,477,460,462
814472,467,457,460
814473,456,459,461
814474,443,462,460
814475,428,461,458
814476,426,459,461
814477,423,460,461
814478,419,460,463
814479,419,461,460
814480,421,458,460
814481,427,459,461
814482,432,462,459
814483,433,459,463
814484,428,460,460
814485,429,461,460
814486,426,459,461
814487,425,460,461
814488,431,458,461
814489,435,460,462
814490,447,460,462
814491,457,460,463
814492,464,461,461
814493,468,461,462
814494,471,460,458
814495,473,461,461
814496,472,461,462
814497,475,458,461
814498,476,458,460
814499,473,461,461
814500,475,461,461
814501,475,460,461
814502,477,460,458
814503,481,462,461
814504,483,461,460
814505,484,460,461
814506,483,460,462
814507,486,458,461
814508,489,458,461
814509,486,460,462
814510,489,461,460
814511,489,460,461
814512,490,460,462
814513,491,460,461
814514,497,461,462
814515,498,460,462
814516,502,460,460
814517,503,461,461
814518,503,460,460
814519,503,461,461
814520,504,458,461
814521,503,460,462
814522,505,461,461
814523,504,460,462
814524,503,461,459
814525,507,461,463
814526,498,461,462
814527,495,461,461
814528,489,460,460
814529,477,461,461
814530,467,460,462
814531,458,461,458
814532,453,460,460
814533,448,461,462
814534,443,460,461
814535,439,460,462
814536,441,461,460
814537,444,460,461
814538,448,460,461
814539,451,462,462
814540,455,458,461
814541,459,460,462
814542,458,460,462
814543,455,461,461
814544,449,461,461
814545,442,461,461
814546,435,460,463
814547,433,460,461
814548,432,463,462
814549,430,458,460
814550,429,460,462
814551,431,461,461
814552,424,460,461
814553,418,460,461
814554,416,460,461
814555,416,461,460
814556,422,460,462
814557,431,460,461
814558,435,458,461
814559,437,460,461
814560,444,459,461
814561,451,459,460
814562,456,460,462
814563,457,459,461
814564,456,460,462
814565,453,459,461
814566,452,460,462
814567,452,460,463
814568,450,459,458
814569,452,460,461
814570,448,461,462
814571,436,462,462
814572,430,461,459
814573,427,461,461
814574,428,460,462
814575,434,461,459
814576,438,460,459
814577,443,460,461
814578,443,461,462
814579,441,460,462
814580,444,460,460
814581,447,460,462
814582,445,461,460
814583,447,462,461
814584,449,459,461
814585,450,461,462
814586,454,462,461
814587,456,461,462
814588,459,460,462
814589,455,461,460
814590,451,461,461
814591,448,460,461
814592,446,458,460
814593,449,459,462
814594,454,462,461
814595,460,461,461
814596,460,462,462
814597,461,461,460
814598,461,460,462
814599,456,462,461
814600,452,459,463
814601,447,461,462
814602,447,460,460
814603,450,461,462
814604,454,461,460
814605,457,460,459
814606,461,460,462
814607,459,461,461
814608,464,460,461
814609,467,460,461
814610,470,460,461
814611,473,461,463
814612,473,460,460
814613,471,461,462
814614,466,458,462
814615,458,460,461
814616,448,460,461
814617,438,461,462
814618,432,461,462
814619,424,461,462
814620,425,462,462
814621,425,460,460
814622,429,462,462
814623,431,461,458
814624,433,461,461
814625,437,461,461
814626,439,460,461
814627,446,461,462
814628,449,461,459
814629,452,459,462
814630,450,461,462
814631,454,462,461
814632,452,460,461
814633,450,462,461
814634,448,459,462
814635,445,461,462
814636,448,461,460
814637,444,458,462
814638,442,460,462
814639,432,460,460
814640,428,458,461
814641,425,461,462
814642,424,460,461
814643,429,461,461
814644,436,458,460
814645,440,460,462
814646,444,461,461
814647,448,460,460
814648,450,460,462
814649,453,460,462
814650,451,461,462
814651,453,461,462
814652,453,459,462
814653,448,460,461
814654,443,460,461
814655,432,461,461
814656,424,458,463
814657,420,460,461
814658,418,461,462
814659,421,460,460
814660,425,459,461
814661,426,461,459
814662,428,461,458
814663,430,461,461
814664,428,461,461
814665,428,460,461
814666,427,462,459
814667,430,461,461
814668,435,461,462
814669,438,460,461
814670,440,460,461
814671,441,459,462
814672,441,462,462
814673,439,460,461
814674,438,461,461
814675,435,461,462
814676,433,460,462
814677,431,460,461
814678,434,460,461
814679,435,461,460
814680,437,460,462
814681,440,460,461
814682,443,459,461
814683,441,458,462
814684,439,461,461
814685,436,460,462
814686,432,460,462
814687,432,461,462
814688,435,458,461
814689,440,460,463
814690,440,461,462
814691,445,459,461
814692,449,460,462
814693,452,461,461
814694,454,458,460
814695,455,460,462
814696,453,461,460
814697,455,462,461
814698,454,459,462
814699,452,461,463
814700,453,460,460
814701,453,460,461
814702,455,459,461
814703,456,459,461
814704,456,460,459
814705,463,459,462
814706,466,460,463
814707,468,461,460
814708,468,459,461
814709,471,459,460
814710,470,459,460
814711,472,459,462
814712,470,461,462
814713,465,461,462
814714,465,461,459
814715,463,460,461
814716,458,460,462
814717,461,460,462
814718,459,461,462
814719,456,459,458
814720,456,460,462
814721,458,459,463
814722,459,459,462
814723,461,460,460
814724,460,461,462
814725,464,460,461
814726,465,460,462
814727,468,460,459
814728,467,460,461
814729,468,460,460
814730,464,457,462
814731,463,461,462
814732,460,460,462
814733,456,460,461
814734,450,459,461
814735,443,458,461
814736,437,459,461
814737,434,460,461
814738,432,460,462
814739,431,460,462
814740,429,459,461
814741,429,461,461
814742,431,459,462
814743,432,458,463
814744,434,461,461
814745,438,460,462
814746,441,462,459
814747,444,459,462
814748,447,459,461
814749,448,462,463
814750,452,460,461
814751,451,461,463
814752,453,461,461
814753,452,460,460
814754,449,461,462
814755,446,460,460
814756,447,460,462
814757,444,462,462
814758,445,458,460
814759,444,459,461
814760,444,461,462
814761,448,459,461
814762,446,460,461
814763,451,460,461
814764,453,462,462
814765,455,460,462
814766,456,461,461
814767,456,460,460
814768,456,461,461
814769,452,460,461
814770,451,460,462
814771,450,460,462
814772,449,461,461
814773,447,460,462
814774,446,460,462
814775,446,460,460
814776,447,460,462
814777,445,460,462
814778,449,460,461
814779,448,460,461
814780,451,460,461
814781,452,458,462
814782,451,459,463
814783,456,460,462
814784,460,459,461
814785,462,461,461
814786,464,461,462
814787,465,458,462
814788,466,461,461
814789,468,460,462
814790,467,458,461
814791,466,460,463
814792,462,460,462
814793,462,461,461
814794,460,461,462
814795,458,460,459
814796,456,461,461
814797,454,459,463
814798,452,461,461
814799,451,460,463
814800,449,457,461
814801,451,458,460
814802,450,459,461
814803,449,461,459
814804,448,461,461
814805,448,459,463
814806,448,459,459
814807,452,460,461
814808,454,462,462
814809,456,461,461
814810,456,459,462
814811,458,461,460
814812,457,460,462
814813,455,459,461
814814,453,459,462
814815,452,461,459
814816,452,460,461
814817,451,459,461
814818,452,459,461
814819,455,460,461
814820,452,460,460
814821,454,460,459
814822,456,460,461
814823,458,460,461
814824,456,459,460
814825,460,460,462
814826,458,460,462
814827,458,458,462
814828,458,459,461
814829,457,459,462
814830,454,461,461
814831,447,459,458
814832,446,458,460
814833,440,461,459
814834,437,461,462
814835,437,457,460
814836,438,461,458
814837,441,456,463
814838,443,461,462
814839,445,460,462
814840,447,458,460
814841,449,461,461
814842,453,461,461
814843,457,460,459
814844,461,458,460
814845,466,460,462
814846,470,460,462
814847,468,461,462
814848,471,460,460
814849,473,459,460
814850,472,460,462
814851,468,459,462
814852,466,460,461
814853,461,461,462
814854,456,461,461
814855,454,459,461
814856,451,461,462
814857,450,460,462
814858,448,461,461
814859,450,460,461
814860,450,460,460
814861,449,461,460
814862,448,461,461
814863,446,459,461
814864,445,459,460
814865,444,462,462
814866,446,459,462
814867,448,461,460
814868,452,460,461
814869,458,460,462
814870,457,460,461
814871,460,458,462
814872,464,459,461
814873,461,459,461
814874,465,461,459
814875,466,460,462
814876,465,459,461
814877,466,461,459
814878,469,460,461
814879,470,459,461
814880,470,460,462
814881,469,461,462
814882,466,461,461
814883,468,460,460
814884,469,458,463
814885,469,460,462
814886,468,460,461
814887,469,460,460
814888,470,458,461
814889,470,459,458
814890,470,460,460
814891,470,460,461
814892,466,460,461
814893,460,461,462
814894,452,461,463
814895,451,461,463
814896,449,460,461
814897,451,461,462
814898,456,456,460
814899,461,459,462
814900,467,459,462
814901,470,459,460
814902,474,459,460
814903,478,459,461
814904,484,459,462
814905,487,458,459
814906,492,459,462
814907,495,461,461
814908,500,460,462
814909,504,461,460
814910,506,461,462
814911,505,458,462
814912,504,460,461
814913,500,460,462
814914,497,460,460
814915,492,459,462
814916,490,459,460
814917,486,461,461
814918,484,460,461
814919,483,460,461
814920,481,460,462
814921,483,460,461
814922,483,460,461
814923,483,460,462
814924,484,460,462
814925,483,460,461
814926,484,457,460
814927,484,460,462
814928,492,462,460
814929,495,460,461
814930,499,458,460
814931,499,460,462
814932,508,457,460
814933,510,461,462
814934,514,460,462
814935,514,461,461
814936,517,460,462
814937,517,459,460
814938,516,458,461
814939,518,460,462
814940,517,461,459
814941,520,461,462
814942,521,460,461
814943,520,461,461
814944,526,460,461
814945,526,461,461
814946,530,457,461
814947,527,460,464
814948,526,462,460
814949,526,460,461
814950,522,462,462
814951,519,460,461
814952,518,460,459
814953,515,460,460
814954,513,460,460
814955,510,461,462
814956,507,458,461
814957,502,460,461
814958,501,458,460
814959,502,460,462
814960,500,461,461
814961,503,460,461
814962,504,460,462
814963,507,459,461
814964,507,459,460
814965,512,459,462
814966,514,459,461
814967,514,460,462
814968,515,462,462
814969,515,460,461
814970,514,462,461
814971,508,461,460
814972,504,461,461
814973,497,461,462
814974,485,462,460
814975,479,460,460
814976,476,458,461
814977,472,460,460
814978,468,459,459
814979,471,459,462
814980,473,460,462
814981,477,460,463
814982,478,460,458
814983,483,459,462
814984,485,459,459
814985,490,460,462
814986,492,459,461
814987,494,460,461
814988,495,459,461
814989,500,460,461
814990,500,460,460
814991,501,458,460
814992,500,460,460
814993,501,461,460
814994,497,457,462
814995,496,461,463
814996,493,460,461
814997,490,458,462
814998,487,461,459
814999,484,459,460
815000,482,461,462
815001,480,460,461
815002,477,461,461
815003,474,458,460
815004,475,460,463
815005,473,461,461
815006,468,458,462
815007,467,461,462
815008,465,460,461
815009,465,460,462
815010,467,459,462
815011,467,460,461
815012,467,458,461
815013,467,457,462
815014,465,458,462
815015,462,461,462
815016,454,461,461
815017,447,460,461
815018,439,461,461
815019,430,460,460
815020,426,459,461
815021,427,461,460
815022,430,458,461
815023,438,460,463
815024,445,461,462
815025,454,457,462
815026,460,458,461
815027,464,458,462
815028,467,460,462
815029,467,461,460
815030,467,457,460
815031,467,460,463
815032,465,457,460
815033,464,461,462
815034,460,459,461
815035,453,460,461
815036,447,461,460
815037,441,460,462
815038,437,460,461
815039,438,461,461
815040,437,461,462
815041,441,461,461
815042,443,460,460
815043,449,461,462
815044,452,460,458
815045,456,461,460
815046,459,460,462
815047,462,460,462
815048,463,460,462
815049,463,460,462
815050,462,460,462
815051,458,460,461
815052,452,461,461
815053,443,460,461
815054,437,460,462
815055,426,460,462
815056,420,460,461
815057,416,460,461
815058,413,461,462
815059,410,461,461
815060,411,460,462
815061,417,459,462
815062,422,460,459
815063,428,461,460
815064,433,459,462
815065,437,459,459
815066,443,459,461
815067,447,459,460
815068,454,459,461
815069,460,459,462
815070,465,459,462
815071,468,460,460
815072,470,460,461
815073,471,462,461
815074,471,459,461
815075,468,461,458
815076,466,461,461
815077,464,460,461
815078,461,461,460
815079,459,461,461
815080,453,461,460
815081,449,461,462
815082,445,461,461
815083,446,460,461
815084,447,460,461
815085,447,461,462
815086,448,461,459
815087,452,458,459
815088,457,460,460
815089,456,460,462
815090,458,462,460
815091,462,462,460
815092,465,460,460
815093,468,459,462
815094,464,461,462
815095,464,460,460
815096,467,462,460
815097,466,459,462
815098,464,461,461
815099,464,461,461
815100,464,461,460
815101,463,459,462
815102,460,460,460
815103,457,461,462
815104,454,460,462
815105,450,460,461
815106,448,460,462
815107,447,461,461
815108,443,461,462
815109,447,460,460
815110,447,460,460
815111,452,461,461
815112,454,461,462
815113,459,460,461
815114,460,460,461
815115,461,459,461
815116,462,460,461
815117,460,461,459
815118,457,461,460
815119,455,459,460
815120,451,460,460
815121,450,460,461
815122,451,461,460
815123,452,461,462
815124,454,461,461
815125,457,462,460
815126,459,462,461
815127,463,458,459
815128,465,462,463
815129,470,460,459
815130,472,460,461
815131,474,462,462
815132,471,463,459
815133,469,461,460
815134,471,460,462
815135,469,460,463
815136,464,461,459
815137,462,461,460
815138,462,459,462
815139,460,460,460
815140,462,459,461
815141,464,460,460
815142,468,462,462
815143,471,461,462
815144,474,460,461
815145,477,460,458
815146,481,460,461
815147,481,460,461
815148,483,461,461
815149,484,459,460
815150,483,459,461
815151,480,461,462
815152,478,460,461
815153,475,461,461
815154,469,460,460
815155,468,457,460
815156,463,460,462
815157,458,461,462
815158,454,460,462
815159,453,458,461
815160,449,460,462
815161,452,459,460
815162,453,460,461
815163,453,460,460
815164,453,462,460
815165,455,462,460
815166,460,461,461
815167,463,460,462
815168,465,461,459
815169,469,460,460
815170,472,461,462
815171,472,460,462
815172,476,460,461
815173,476,460,461
815174,475,460,462
815175,473,460,459
815176,473,459,462
815177,473,460,463
815178,469,460,460
815179,468,459,461
815180,469,460,461
815181,472,462,461
815182,473,461,461
815183,473,460,460
815184,474,461,460
815185,476,458,461
815186,476,461,461
815187,476,461,461
815188,477,460,460
815189,476,461,461
815190,474,460,462
815191,473,461,458
815192,470,461,462
815193,466,458,461
815194,458,462,459
815195,451,462,462
815196,448,460,460
815197,444,458,461
815198,445,460,460
815199,445,460,460
815200,447,459,461
815201,446,460,461
815202,450,458,461
815203,452,461,460
815204,456,460,461
815205,457,461,461
815206,459,461,461
815207,458,460,462
815208,457,459,461
815209,456,460,459
815210,459,461,460
815211,456,460,461
815212,455,461,461
815213,449,460,461
815214,444,460,462
815215,438,457,460
815216,437,457,461
815217,434,460,462
815218,432,460,461
815219,433,459,462
815220,434,459,461
815221,438,460,460
815222,438,460,461
815223,441,460,460
815224,444,460,462
815225,447,460,461
815226,449,460,458
815227,452,461,461
815228,453,459,461
815229,453,458,462
815230,453,461,461
815231,450,460,461
815232,448,460,462
815233,448,458,461
815234,449,461,461
815235,447,460,460
815236,444,459,462
815237,442,461,461
815238,440,461,460
815239,438,460,463
815240,440,460,461
815241,442,457,461
815242,443,460,460
815243,442,462,462
815244,445,460,461
815245,447,460,461
815246,450,459,462
815247,452,459,463
815248,454,461,462
815249,456,460,461
815250,456,461,462
815251,454,460,462
815252,455,462,461
815253,454,460,461
815254,451,459,461
815255,449,460,460
815256,444,461,463
815257,444,460,459
815258,442,462,461
815259,440,462,461
815260,439,459,461
815261,441,461,461
815262,436,460,461
815263,441,459,461
815264,440,462,460
815265,444,462,462
815266,444,459,461
815267,444,460,460
815268,442,461,462
815269,444,462,461
815270,443,460,461
815271,443,460,463
815272,441,461,461
815273,437,461,460
815274,434,461,462
815275,429,461,460
815276,427,461,460
815277,426,460,462
815278,426,459,461
815279,422,461,459
815280,423,462,462
815281,422,459,462
815282,421,460,461
815283,422,460,458
815284,426,458,462
815285,431,457,460
815286,435,461,461
815287,437,461,462
815288,439,460,461
815289,438,460,463
815290,438,461,461
815291,439,458,461
815292,439,462,461
815293,435,460,463
815294,437,457,461
815295,434,460,463
815296,435,461,460
815297,433,461,461
815298,434,460,462
815299,431,460,461
815300,430,460,461
815301,432,459,461
815302,431,459,462
815303,431,460,463
815304,434,461,461
815305,439,462,460
815306,441,461,460
815307,443,460,462
815308,445,458,461
815309,442,459,462
815310,439,461,462
815311,437,462,463
815312,435,460,462
815313,434,461,462
815314,433,461,462
815315,433,461,462
815316,430,462,462
815317,434,460,462
815318,433,460,461
815319,434,461,462
815320,436,460,461
815321,434,460,460
815322,436,461,461
815323,436,460,459
815324,435,461,462
815325,437,460,461
815326,438,462,461
815327,441,458,462
815328,441,461,462
815329,442,460,465
815330,443,460,459
815331,444,461,461
815332,444,461,461
815333,444,457,461
815334,445,459,461
815335,443,461,461
815336,442,460,460
815337,442,462,461
815338,439,458,461
815339,439,460,462
815340,438,461,462
815341,441,460,462
815342,443,459,462
815343,445,461,462
815344,446,461,461
815345,448,462,462
815346,450,462,461
815347,453,460,459
815348,455,462,462
815349,453,462,462
815350,456,460,460
815351,458,460,462
815352,455,460,459
815353,456,461,460
815354,455,459,461
815355,453,458,461
815356,451,461,462
815357,449,460,461
815358,448,459,462
815359,448,460,461
815360,444,462,461
815361,447,461,462
815362,446,461,461
815363,449,459,461
815364,452,459,461
815365,454,460,462
815366,458,460,462
815367,461,461,462
815368,458,461,460
815369,460,460,460
815370,456,461,460
815371,453,460,462
815372,452,460,461
815373,448,459,460
815374,449,460,460
815375,449,461,462
815376,449,460,460
815377,449,460,462
815378,448,462,461
815379,448,461,461
815380,449,460,460
815381,450,459,461
815382,453,460,461
815383,453,461,462
815384,456,460,462
815385,461,460,461
815386,466,459,461
815387,471,459,462
815388,473,460,461
815389,472,461,457
815390,475,459,462
815391,475,460,462
815392,477,459,462
815393,477,460,462
815394,472,461,460
815395,470,461,460
815396,467,460,461
815397,462,460,462
815398,459,460,462
815399,455,459,462
815400,455,461,459
815401,454,459,460
815402,455,461,461
815403,454,461,461
815404,456,460,462
815405,460,459,461
815406,463,458,461
815407,462,460,459
815408,468,461,461
815409,468,461,461
815410,469,461,461
815411,470,459,459
815412,468,459,461
815413,465,460,462
815414,461,460,462
815415,457,461,460
815416,455,460,460
815417,454,460,462
815418,453,461,462
815419,452,459,460
815420,451,461,462
815421,451,460,463
815422,449,460,462
815423,450,460,462
815424,451,461,460
815425,450,460,462
815426,447,461,463
815427,451,462,461
815428,452,459,462
815429,452,461,461
815430,454,460,461
815431,456,456,460
815432,456,460,459
815433,455,460,462
815434,455,460,463
815435,454,459,464
815436,453,460,462
815437,448,461,461
815438,446,460,463
815439,449,459,460
815440,450,459,462
815441,450,459,460
815442,453,460,461
815443,453,458,462
815444,453,459,460
815445,456,461,462
815446,459,461,463
815447,456,461,461
815448,461,461,461
815449,460,460,462
815450,461,459,462
815451,463,457,462
815452,460,459,462
815453,461,461,461
815454,458,460,464
815455,457,460,460
815456,458,460,461
815457,455,459,459
815458,458,460,461
815459,458,457,460
815460,460,460,462
815461,459,459,460
815462,460,461,461
815463,455,460,462
815464,456,462,459
815465,456,461,460
815466,454,461,462
815467,457,462,460
815468,460,460,461
815469,457,461,462
815470,459,460,462
815471,455,460,462
815472,458,462,462
815473,456,457,461
815474,454,460,462
815475,451,461,462
815476,448,460,461
815477,447,457,461
815478,444,460,460
815479,446,459,462
815480,449,459,462
815481,448,460,459
815482,450,461,461
815483,451,462,462
815484,454,459,461
815485,454,460,462
815486,459,460,462
815487,459,460,462
815488,460,461,461
815489,461,461,460
815490,460,460,460
815491,462,460,462
815492,458,457,461
815493,455,460,461
815494,454,459,462
815495,453,461,463
815496,449,459,460
815497,446,461,460
815498,445,461,460
815499,443,462,461
815500,443,460,460
815501,445,460,462
815502,445,460,462
815503,448,459,462
815504,448,460,459
815505,447,462,463
815506,450,460,460
815507,451,462,461
815508,456,459,459
815509,459,460,462
815510,460,460,461
815511,462,460,463
815512,462,460,459
815513,461,461,462
815514,461,461,460
815515,460,460,461
815516,458,459,461
815517,455,458,462
815518,453,460,462
815519,448,458,462
815520,449,461,461
815521,447,461,462
815522,446,457,462
815523,445,460,462
815524,445,459,461
815525,448,461,462
815526,447,460,461
815527,448,459,462
815528,451,460,459
815529,454,462,461
815530,458,460,461
815531,457,459,461
815532,459,460,462
815533,460,460,460
815534,460,459,461
815535,457,458,461
815536,456,461,462
815537,455,461,461
815538,450,460,463
815539,454,460,462
815540,452,459,461
815541,454,458,462
815542,456,457,462
815543,458,461,463
815544,464,460,460
815545,469,461,463
815546,469,461,462
815547,479,461,461
815548,477,457,462
815549,477,459,461
815550,476,461,462
815551,474,460,460
815552,469,460,462
815553,468,460,461
815554,464,461,461
815555,461,459,462
815556,460,461,462
815557,458,460,462
815558,456,460,462
815559,456,461,461
815560,455,460,463
815561,455,459,462
815562,457,459,462
815563,456,460,463
815564,454,460,460
815565,456,459,461
815566,454,460,463
815567,458,460,460
815568,458,459,462
815569,459,457,461
815570,460,460,461
815571,459,460,462
815572,460,460,461
815573,460,460,461
815574,461,462,461
815575,460,461,461
815576,461,460,462
815577,460,459,462
815578,460,460,463
815579,459,461,463
815580,457,460,462
815581,459,462,462
815582,459,460,461
815583,461,460,462
815584,462,462,462
815585,463,459,463
815586,464,463,461
815587,467,459,462
815588,466,461,461
815589,468,458,460
815590,468,461,462
815591,466,460,462
815592,467,461,461
815593,467,458,461
815594,467,461,462
815595,468,461,461
815596,469,457,461
815597,465,461,462
815598,469,461,462
815599,468,462,460
815600,472,461,461
815601,473,459,461
815602,477,461,461
815603,475,460,462
815604,475,461,462
815605,475,460,462
815606,476,462,461
815607,476,461,460
815608,475,462,460
815609,473,461,462
815610,474,459,462
815611,472,461,460
815612,472,462,460
815613,470,460,461
815614,471,459,462
815615,475,458,462
815616,474,460,463
815617,475,459,462
815618,475,461,462
815619,474,462,461
815620,473,460,462
815621,472,460,460
815622,471,461,461
815623,471,460,463
815624,470,461,463
815625,470,460,461
815626,469,461,461
815627,473,460,460
815628,478,462,461
815629,481,458,461
815630,483,459,462
815631,485,461,461
815632,486,460,462
815633,485,460,460
815634,483,460,462
815635,481,460,462
815636,481,462,459
815637,479,462,462
815638,478,461,460
815639,475,461,460
815640,474,459,462
815641,472,461,462
815642,471,459,462
815643,470,461,462
815644,472,460,463
815645,470,457,462
815646,472,460,462
815647,472,459,461
815648,474,460,462
815649,476,460,463
815650,476,460,461
815651,476,461,460
815652,478,460,458
815653,481,460,461
815654,482,462,459
815655,486,461,462
815656,487,462,462
815657,485,461,461
815658,480,460,461
815659,478,459,461
815660,475,460,458
815661,472,460,460
815662,471,459,462
815663,470,460,463
815664,470,459,462
815665,471,459,462
815666,474,459,461
815667,479,460,461
815668,480,459,461
815669,483,460,462
815670,485,459,462
815671,485,461,461
815672,487,462,462
815673,487,463,461
815674,484,461,461
815675,481,458,462
815676,479,459,462
815677,476,460,462
815678,474,461,463
815679,471,461,463
815680,469,460,462
815681,466,461,461
815682,464,461,462
815683,460,461,461
815684,462,460,463
815685,463,460,462
815686,468,460,462
815687,475,460,461
815688,477,461,461
815689,484,461,460
815690,487,460,459
815691,496,461,458
815692,505,461,460
815693,508,462,460
815694,507,462,460
815695,503,460,462
815696,500,458,461
815697,494,460,462
815698,485,460,461
815699,484,460,461
815700,477,460,462
815701,474,462,460
815702,468,457,462
815703,466,456,461
815704,468,459,462
815705,476,460,462
815706,483,461,461
815707,487,460,463
815708,486,462,461
815709,490,461,459
815710,491,460,461
815711,492,461,461
815712,491,460,461
815713,487,459,460
815714,480,458,462
815715,474,460,461
815716,469,460,462
815717,467,462,460
815718,463,461,462
815719,466,458,461
815720,465,461,461
815721,472,461,460
815722,468,458,460
815723,469,459,461
815724,471,461,462
815725,470,460,460
815726,467,461,461
815727,470,459,462
815728,469,461,459
815729,469,460,461
815730,476,461,462
815731,485,459,462
815732,498,459,460
815733,505,460,460
815734,509,462,460
815735,512,459,463
815736,510,462,462
815737,507,460,462
815738,497,461,462
815739,490,459,462
815740,476,461,459
815741,466,462,462
815742,456,460,462
815743,452,460,462
815744,449,460,458
815745,455,461,462
815746,452,460,463
815747,458,461,461
815748,462,460,460
815749,467,459,461
815750,469,460,462
815751,471,461,463
815752,471,461,460
815753,472,462,462
815754,472,457,461
815755,471,460,462
815756,463,459,463
815757,463,460,461
815758,462,458,461
815759,460,460,462
815760,458,460,462
815761,466,462,463
815762,470,459,461
815763,472,459,462
815764,476,461,462
815765,474,461,459
815766,476,462,462
815767,475,458,462
815768,475,457,462
815769,473,461,462
815770,470,459,462
815771,475,461,459
815772,474,460,462
815773,475,462,462
815774,475,460,462
815775,473,459,460
815776,472,461,460
815777,469,459,461
815778,465,461,462
815779,460,461,462
815780,457,461,459
815781,454,460,463
815782,456,460,462
815783,458,460,462
815784,464,461,461
815785,466,461,460
815786,470,460,461
815787,476,461,461
815788,478,460,462
815789,481,462,461
815790,478,460,462
815791,480,460,461
815792,478,460,460
815793,474,461,462
815794,472,458,461
815795,472,461,461
815796,472,462,461
815797,474,459,461
815798,473,460,461
815799,471,460,462
815800,470,460,462
815801,465,460,462
815802,461,461,462
815803,460,459,463
1741017006347,NEW REP,,
815804,458,461,458
815805,461,460,463
815806,462,461,463
815807,463,459,461
815808,464,460,462
815809,464,463,462
815810,465,461,462
815811,467,461,462
815812,466,460,461
815813,467,460,461
815814,468,459,461
815815,471,461,461
815816,472,461,459
815817,481,461,462
815818,490,462,461
815819,496,460,462
815820,502,461,463
815821,504,460,461
815822,505,461,462
815823,499,460,461
815824,493,460,462
815825,483,461,458
815826,475,460,462
815827,467,461,460
815828,463,461,462
815829,464,462,460
815830,464,462,461
815831,467,460,461
815832,469,460,462
815833,471,459,463
815834,473,460,459
815835,476,461,461
815836,478,461,461
815837,478,462,461
815838,475,460,461
815839,475,462,461
815840,472,462,461
815841,468,461,461
815842,462,461,461
815843,461,460,461
815844,461,461,462
815845,465,459,461
815846,469,460,463
815847,475,461,462
815848,482,462,460
815849,490,461,460
815850,498,457,459
815851,500,460,462
815852,501,459,461
815853,498,462,462
815854,492,461,461
815855,484,461,462
815856,475,460,458
815857,469,461,460
815858,464,461,460
815859,460,461,462
815860,457,460,462
815861,450,461,462
815862,446,460,459
815863,451,461,461
815864,452,460,462
815865,449,460,459
815866,453,462,461
815867,455,459,461
815868,463,459,463
815869,472,459,461
815870,474,461,460
815871,480,461,459
815872,482,460,461
815873,483,461,460
815874,483,462,462
815875,486,460,462
815876,482,459,461
815877,476,459,461
815878,471,461,462
815879,466,461,461
815880,459,462,462
815881,460,460,459
815882,458,458,461
815883,459,459,462
815884,459,460,460
815885,458,460,462
815886,459,460,463
815887,461,461,460
815888,467,461,459
815889,474,460,460
815890,479,460,460
815891,483,460,461
815892,487,460,462
815893,488,461,462
815894,485,460,463
815895,479,461,461
815896,471,461,461
815897,464,460,461
815898,458,460,461
815899,451,460,462
815900,447,460,463
815901,444,460,461
815902,445,460,461
815903,450,461,462
815904,452,461,461
815905,456,460,460
815906,461,460,460
815907,468,459,462
815908,470,459,462
815909,473,461,461
815910,474,459,460
815911,478,460,462
815912,483,459,462
815913,486,460,462
815914,485,461,460
815915,488,460,461
815916,481,461,461
815917,479,461,461
815918,476,460,462
815919,471,460,462
815920,460,460,459
815921,455,461,463
815922,450,460,460
815923,448,458,462
815924,449,460,462
815925,449,460,462
815926,454,461,461
815927,457,460,460
815928,462,460,461
815929,463,459,462
815930,462,462,461
815931,462,460,464
815932,459,460,462
815933,455,461,460
815934,452,462,460
815935,454,461,460
815936,457,460,461
815937,458,457,460
815938,463,461,461
815939,466,459,461
815940,470,460,461
815941,471,461,461
815942,468,458,461
815943,461,461,461
815944,455,462,458
815945,448,461,462
815946,447,459,460
815947,445,459,461
815948,446,461,461
815949,450,462,459
815950,457,461,459
815951,464,458,459
815952,469,460,462
815953,474,461,460
815954,477,460,462
815955,473,460,460
815956,468,461,461
815957,460,461,462
815958,453,462,460
815959,446,460,461
815960,440,459,461
815961,441,460,461
815962,441,459,462
815963,443,460,460
815964,443,460,462
815965,443,460,462
815966,445,460,461
815967,451,461,457
815968,459,458,460
815969,467,461,462
815970,470,460,462
815971,472,461,461
815972,469,460,461
815973,466,458,461
815974,463,458,460
815975,459,461,461
815976,451,462,461
815977,444,462,461
815978,446,462,460
815979,445,462,459
815980,445,460,460
815981,444,462,460
815982,441,459,462
815983,432,459,460
815984,433,460,460
815985,432,461,461
815986,435,460,461
815987,436,462,462
815988,435,460,460
815989,443,460,461
815990,450,460,462
815991,452,461,461
815992,461,460,460
815993,464,460,461
815994,466,461,459
815995,470,462,461
815996,473,461,461
815997,471,460,461
815998,467,459,459
815999,460,460,461
816000,456,460,461
816001,452,460,462
816002,448,460,459
816003,443,462,461
816004,438,460,462
816005,436,460,461
816006,435,461,461
816007,436,460,462
816008,442,461,461
816009,448,461,461
816010,449,461,457
816011,455,460,461
816012,454,460,460
816013,453,460,459
816014,457,461,462
816015,457,458,460
816016,459,460,462
816017,456,460,460
816018,455,461,462
816019,456,460,459
816020,452,461,460
816021,450,459,461
816022,449,460,461
816023,451,460,463
816024,451,460,460
816025,450,461,460
816026,449,461,461
816027,449,460,461
816028,448,459,462
816029,447,460,460
816030,446,460,460
816031,443,461,461
816032,441,460,463
816033,437,461,460
816034,435,458,461
816035,431,460,461
816036,426,457,462
816037,418,460,462
816038,421,461,460
816039,423,461,458
816040,423,461,459
816041,425,461,461
816042,423,459,462
816043,423,460,462
816044,423,460,462
816045,425,459,457
816046,425,461,461
816047,430,459,461
816048,436,459,462
816049,442,461,460
816050,447,460,461
816051,449,460,458
816052,450,461,459
816053,449,462,460
816054,448,459,462
816055,441,460,459
816056,443,459,462
816057,445,460,462
816058,445,459,460
816059,443,460,461
816060,437,460,461
816061,438,462,461
816062,439,460,460
816063,439,460,460
816064,436,459,461
816065,437,460,461
816066,436,458,461
816067,436,461,461
816068,433,460,462
816069,430,461,461
816070,430,460,462
816071,429,460,461
816072,434,460,461
816073,437,459,462
816074,440,457,461
816075,443,461,460
816076,445,460,462
816077,444,460,460
816078,443,461,461
816079,439,460,461
816080,436,459,460
816081,430,461,461
816082,427,459,461
816083,425,460,461
816084,423,460,461
816085,423,460,461
816086,423,458,461
816087,426,461,461
816088,429,458,461
816089,429,461,460
816090,428,461,462
816091,431,460,462
816092,432,459,462
816093,431,459,459
816094,433,461,460
816095,435,461,461
816096,435,459,462
816097,438,461,461
816098,438,459,461
816099,440,457,462
816100,441,460,461
816101,443,459,462
816102,445,461,460
816103,441,459,463
816104,443,461,463
816105,443,459,460
816106,439,459,460
816107,435,460,460
816108,434,460,462
816109,435,460,462
816110,435,458,461
816111,434,460,460
816112,436,460,462
816113,439,459,462
816114,441,460,462
816115,446,460,461
816116,446,460,461
816117,442,460,461
816118,438,458,461
816119,432,461,462
816120,424,460,462
816121,416,460,461
816122,412,459,461
816123,416,457,460
816124,421,459,461
816125,426,460,463
816126,432,461,460
816127,442,458,462
816128,448,460,462
816129,450,461,462
816130,455,460,461
816131,460,461,461
816132,455,458,461
816133,449,460,461
816134,442,460,461
816135,433,458,462
816136,429,460,461
816137,428,461,460
816138,429,459,462
816139,437,459,461
816140,439,462,461
816141,445,460,461
816142,448,459,462
816143,452,457,461
816144,455,460,462
816145,455,460,461
816146,453,460,461
816147,455,460,461
816148,459,459,462
816149,459,461,462
816150,461,461,460
816151,460,460,462
816152,463,460,462
816153,463,461,462
816154,467,458,460
816155,470,460,461
816156,474,462,462
816157,475,459,462
816158,468,461,461
816159,462,461,462
816160,444,461,461
816161,427,460,463
816162,413,461,462
816163,407,461,462
816164,407,459,462
816165,415,462,461
816166,425,459,461
816167,435,461,461
816168,448,461,461
816169,456,461,461
816170,461,461,462
816171,468,460,461
816172,474,458,462
816173,473,459,461
816174,474,461,460
816175,464,458,461
816176,453,460,462
816177,441,460,462
816178,436,457,463
816179,446,460,462
816180,449,457,462
816181,457,460,461
816182,462,461,461
816183,471,460,462
816184,474,461,462
816185,483,460,461
816186,484,460,459
816187,489,460,461
816188,490,458,460
816189,493,461,459
816190,498,461,460
816191,505,461,461
816192,511,460,460
816193,515,461,460
816194,514,460,462
816195,512,460,462
816196,504,460,460
816197,497,461,462
816198,489,459,462
816199,476,460,461
816200,459,460,460
816201,443,458,460
816202,433,458,462
816203,430,459,462
816204,436,460,462
816205,449,460,462
816206,464,459,463
816207,477,460,463
816208,492,459,461
816209,498,457,461
816210,505,459,461
816211,509,460,460
816212,516,460,461
816213,519,460,462
816214,516,460,459
816215,517,459,461
816216,517,459,461
816217,511,460,462
816218,510,460,462
816219,504,460,461
816220,499,459,461
816221,493,460,461
816222,486,459,461
816223,471,462,461
816224,455,459,462
816225,438,460,461
816226,426,460,463
816227,424,460,462
816228,427,461,462
816229,439,460,461
816230,455,461,461
816231,475,460,461
816232,484,460,461
816233,495,460,461
816234,500,460,458
816235,508,461,461
816236,517,460,461
816237,516,460,461
816238,511,457,461
816239,503,459,462
816240,493,461,461
816241,487,458,460
816242,486,459,460
816243,486,459,463
816244,489,461,462
816245,497,462,460
816246,501,458,462
816247,503,459,461
816248,499,461,462
816249,489,462,462
816250,471,461,461
816251,455,460,461
816252,441,459,463
816253,439,459,461
816254,447,460,462
816255,457,461,462
816256,472,459,463
816257,480,461,459
816258,483,461,461
816259,487,457,461
816260,489,460,463
816261,491,461,462
816262,490,461,461
816263,486,459,461
816264,481,461,460
816265,479,460,462
816266,476,460,460
816267,479,461,461
816268,489,461,461
816269,500,460,461
816270,510,460,462
816271,517,460,460
816272,514,460,460
816273,510,459,463
816274,500,460,461
816275,496,458,461
816276,487,458,462
816277,479,461,461
816278,474,460,462
816279,470,460,461
816280,476,459,459
816281,482,460,461
816282,489,460,461
816283,492,460,460
816284,492,459,462
816285,488,460,461
816286,486,459,462
816287,485,460,458
816288,485,461,461
816289,487,458,461
816290,484,460,459
816291,484,461,461
816292,484,460,461
816293,483,460,459
816294,487,462,460
816295,497,461,462
816296,505,461,462
816297,515,461,463
816298,515,461,461
816299,516,461,461
816300,512,459,461
816301,504,460,459
816302,493,461,458
816303,485,463,460
816304,480,462,460
816305,478,460,462
816306,482,462,461
816307,488,460,461
816308,495,461,460
816309,501,461,462
816310,504,461,463
816311,509,458,461
816312,510,461,460
816313,504,461,461
816314,494,460,462
816315,491,460,461
816316,491,459,461
816317,493,461,459
816318,502,461,461
816319,507,460,461
816320,514,459,460
816321,516,461,461
816322,521,460,461
816323,521,460,461
816324,524,461,459
816325,531,462,460
816326,534,459,460
816327,536,460,461
816328,535,460,462
816329,540,462,460
816330,544,461,460
816331,544,461,460
816332,543,462,461
816333,536,460,461
816334,528,461,461
816335,516,458,461
816336,506,459,461
816337,495,459,459
816338,492,460,462
816339,487,460,459
816340,487,460,460
816341,486,462,461
816342,486,462,461
816343,489,461,461
816344,494,462,460
816345,497,462,461
816346,502,460,462
816347,502,461,460
816348,507,457,461
816349,508,461,462
816350,510,461,462
816351,510,461,462
816352,510,462,464
816353,509,458,462
816354,505,460,461
816355,504,459,461
816356,501,461,461
816357,494,460,461
816358,491,460,463
816359,490,461,461
816360,489,459,461
816361,490,459,461
816362,488,461,461
816363,490,460,460
816364,490,461,462
816365,488,460,461
816366,490,461,463
816367,492,461,462
816368,495,461,460
816369,494,461,459
816370,494,462,460
816371,492,461,462
816372,490,461,460
816373,489,460,462
816374,490,458,461
816375,491,460,462
816376,490,461,461
816377,488,461,461
816378,485,461,461
816379,482,461,463
816380,482,461,462
816381,477,459,461
816382,474,462,462
816383,472,461,462
816384,471,461,462
816385,469,460,460
816386,470,460,462
816387,469,458,460
816388,465,460,462
816389,459,458,461
816390,456,461,459
816391,448,462,461
816392,444,461,461
816393,440,460,462
816394,439,460,461
816395,440,459,461
816396,440,462,461
816397,444,460,460
816398,447,461,462
816399,447,459,462
816400,449,462,461
816401,449,462,459
816402,451,461,459
816403,452,461,461
816404,455,461,462
816405,453,458,461
816406,457,460,461
816407,460,461,460
816408,465,459,461
816409,465,461,461
816410,469,458,460
816411,474,461,461
816412,476,461,461
816413,479,460,462
816414,481,461,461
816415,479,461,460
816416,481,461,459
816417,480,461,461
816418,479,462,461
816419,478,460,461
816420,476,461,462
816421,474,460,461
816422,471,459,462
816423,470,462,460
816424,472,461,460
816425,472,460,460
816426,472,458,461
816427,472,460,460
816428,474,460,462
816429,476,461,462
816430,478,459,462
816431,477,460,462
816432,479,461,462
816433,478,462,462
816434,475,460,460
816435,472,458,461
816436,469,461,461
816437,465,458,459
816438,462,460,458
816439,459,460,460
816440,458,460,461
816441,454,459,462
816442,448,460,460
816443,445,458,460
816444,445,460,461
816445,441,460,461
816446,439,460,461
816447,439,460,462
816448,439,461,461
816449,442,462,461
816450,441,460,460
816451,447,459,461
816452,451,462,462
816453,457,460,462
816454,460,458,462
816455,462,460,461
816456,464,462,462
816457,465,461,462
816458,464,462,460
816459,462,460,460
816460,461,458,460
816461,460,461,460
816462,461,462,460
816463,457,461,458
816464,460,461,461
816465,461,461,460
816466,462,462,461
816467,462,461,458
816468,463,460,460
816469,462,461,460
816470,460,460,461
816471,461,460,458
816472,459,461,460
816473,461,461,461
816474,458,459,462
816475,454,462,459
816476,453,461,461
816477,450,460,460
816478,448,461,461
816479,448,460,461
816480,450,458,461
816481,450,460,461
816482,451,459,463
816483,451,460,460
816484,453,459,462
816485,458,461,461
816486,460,460,460
816487,463,460,461
816488,467,459,461
816489,472,462,460
816490,476,457,462
816491,480,461,461
816492,482,462,461
816493,483,461,460
816494,484,461,461
816495,483,462,461
816496,479,461,460
816497,474,461,461
816498,469,459,461
816499,462,464,461
816500,456,460,463
816501,447,460,460
816502,440,459,461
816503,434,457,461
816504,430,461,462
816505,429,460,462
816506,427,462,462
816507,436,462,461
816508,440,460,458
816509,447,461,459
816510,450,460,461
816511,450,460,461
816512,451,459,462
816513,451,459,460
816514,449,460,461
816515,450,461,459
816516,447,460,461
816517,447,461,460
816518,445,460,462
816519,446,457,462
816520,446,460,461
816521,450,459,461
816522,453,460,460
816523,455,460,462
816524,456,460,461
816525,462,461,462
816526,465,461,461
816527,468,457,461
816528,471,463,461
816529,476,461,460
816530,478,458,462
816531,479,459,462
816532,479,461,460
816533,478,460,459
816534,475,460,462
816535,470,461,461
816536,462,459,460
816537,458,461,461
816538,453,459,462
816539,448,458,461
816540,445,461,462
816541,444,460,459
816542,440,461,460
816543,444,461,462
816544,445,460,462
816545,446,460,461
816546,450,461,462
816547,451,460,460
816548,458,460,461
816549,457,461,460
816550,464,460,463
816551,467,458,461
816552,472,458,462
816553,470,460,461
816554,468,459,460
816555,464,460,462
816556,458,460,463
816557,453,461,461
816558,447,461,461
816559,441,459,460
816560,436,460,460
816561,437,460,461
816562,433,460,462
816563,439,460,462
816564,441,460,460
816565,444,461,461
816566,451,461,462
816567,458,460,461
816568,464,461,461
816569,467,460,459
816570,470,459,462
816571,475,460,461
816572,479,460,462
816573,478,459,461
816574,479,461,458
816575,481,459,462
816576,480,459,462
816577,477,461,462
816578,472,462,461
816579,467,458,461
816580,463,461,462
816581,459,460,463
816582,456,461,461
816583,451,459,462
816584,451,462,461
816585,449,457,461
816586,446,460,461
816587,438,460,462
816588,435,461,462
816589,432,457,462
816590,431,460,461
816591,438,462,461
816592,442,459,461
816593,449,460,461
816594,455,460,460
816595,457,461,461
816596,458,461,460
816597,462,460,462
816598,461,459,461
816599,456,460,461
816600,455,458,460
816601,452,460,461
816602,449,458,462
816603,447,459,461
816604,447,459,462
816605,447,459,462
816606,451,459,460
816607,451,459,459
816608,454,461,462
816609,455,461,458
816610,461,460,461
816611,466,460,462
816612,469,459,461
816613,469,461,462
816614,470,461,459
816615,473,460,462
816616,472,461,461
816617,465,461,461
816618,457,462,462
816619,445,459,460
816620,437,461,460
816621,431,462,461
816622,432,457,460
816623,436,458,461
816624,443,459,461
816625,450,460,461
816626,460,460,461
816627,466,460,460
816628,476,461,461
816629,483,458,461
816630,487,461,461
816631,490,460,460
816632,490,461,460
816633,492,460,460
816634,493,462,460
816635,494,460,459
816636,495,462,461
816637,496,460,461
816638,494,459,460
816639,492,460,462
816640,491,460,462
816641,487,459,461
816642,488,458,462
816643,485,456,462
816644,484,460,462
816645,486,461,460
816646,483,460,461
816647,482,459,462
816648,478,459,460
816649,473,459,462
816650,471,460,462
816651,472,460,461
816652,472,458,459
816653,473,460,461
816654,475,462,461
816655,475,460,460
816656,472,459,460
816657,469,461,461
816658,462,459,461
816659,453,459,461
816660,445,462,457
816661,438,460,462
816662,434,461,460
816663,429,458,460
816664,431,459,462
816665,436,459,461
816666,442,461,461
816667,448,461,460
816668,456,460,460
816669,462,459,462
816670,469,460,462
816671,465,459,460
816672,467,461,460
816673,462,460,461
816674,460,458,460
816675,456,460,460
816676,455,460,460
816677,454,461,461
816678,457,459,460
816679,456,460,461
816680,457,461,460
816681,457,461,462
816682,461,460,462
816683,460,462,460
816684,461,459,461
816685,463,457,460
816686,465,460,459
816687,466,461,460
816688,469,459,460
816689,471,460,458
816690,476,461,461
816691,479,461,461
816692,481,461,461
816693,481,461,459
816694,484,458,462
816695,482,457,461
816696,484,461,461
816697,480,459,459
816698,481,460,461
816699,478,459,462
816700,475,457,461
816701,472,461,461
816702,467,457,462
816703,461,459,460
816704,460,459,461
816705,460,461,461
816706,463,460,461
816707,465,461,462
816708,471,459,462
816709,474,460,462
816710,474,461,461
816711,479,461,462
816712,482,462,463
816713,482,458,462
816714,480,459,460
816715,478,460,461
816716,475,460,462
816717,472,460,460
816718,472,461,461
816719,468,460,462
816720,468,460,458
816721,468,460,461
816722,469,460,461
816723,464,460,461
816724,461,461,462
816725,456,460,461
816726,451,461,460
816727,447,461,459
816728,439,460,462
816729,436,460,458
816730,442,461,461
816731,444,459,461
816732,448,460,460
816733,455,459,463
816734,462,460,460
816735,467,460,462
816736,471,460,460
816737,476,461,458
816738,477,459,461
816739,480,459,461
816740,481,460,462
816741,480,460,460
816742,483,460,462
816743,484,462,461
816744,483,458,462
816745,483,458,461
816746,484,462,461
816747,487,458,462
816748,485,460,459
816749,488,460,461
816750,489,461,459
816751,479,459,461
816752,472,461,463
816753,470,461,462
816754,471,459,461
816755,473,460,460
816756,478,459,460
816757,485,461,461
816758,487,460,461
816759,489,460,461
816760,491,457,461
816761,492,460,461
816762,496,460,461
816763,497,461,460
816764,500,461,463
816765,502,460,461
816766,505,459,461
816767,508,461,459
816768,511,461,460
816769,515,461,461
816770,518,460,460
816771,519,460,462
816772,523,458,461
816773,523,459,460
816774,526,461,461
816775,526,461,460
816776,528,459,462
816777,526,460,458
816778,523,461,460
816779,519,460,461
816780,514,460,461
816781,511,460,460
816782,506,461,461
816783,504,461,459
816784,503,461,460
816785,503,460,460
816786,501,461,460
816787,500,460,459
816788,501,460,460
816789,504,459,460
816790,505,461,462
816791,506,457,459
816792,510,460,462
816793,509,460,462
816794,509,459,462
816795,508,459,462
816796,505,458,462
816797,500,459,460
816798,493,462,460
816799,487,460,463
816800,478,458,462
816801,472,460,460
816802,467,459,460
816803,460,460,461
816804,463,460,459
816805,464,460,460
816806,464,459,461
816807,464,461,461
816808,466,461,460
816809,473,459,460
816810,478,460,461
816811,484,460,461
816812,486,460,462
816813,488,459,460
816814,490,462,461
816815,494,462,460
816816,494,460,462
816817,496,460,463
816818,493,460,463
816819,492,460,462
816820,486,459,459
816821,482,460,461
816822,476,460,461
816823,467,461,461
816824,467,461,462
816825,466,459,462
816826,466,460,461
816827,469,460,462
816828,474,460,461
816829,478,461,461
816830,484,456,460
816831,486,459,461
816832,486,456,460
816833,487,460,462
816834,486,460,463
816835,486,461,461
816836,486,462,461
816837,487,460,462
816838,486,460,461
816839,487,460,460
816840,485,459,460
816841,488,459,460
816842,487,460,461
816843,484,461,463
816844,486,461,462
816845,489,460,461
816846,488,462,461
816847,489,458,461
816848,493,461,463
816849,493,460,462
816850,493,460,463
816851,494,460,461
816852,495,459,461
816853,497,460,462
816854,496,462,461
816855,495,460,461
816856,492,461,461
816857,491,461,462
816858,490,458,462
816859,487,459,461
816860,484,461,461
816861,478,460,462
816862,478,459,462
816863,476,463,461
816864,475,461,461
816865,477,461,459
816866,475,460,463
816867,477,461,462
816868,477,460,461
816869,476,460,464
816870,477,460,462
816871,475,458,461
816872,474,461,462
816873,472,458,461
816874,471,458,461
816875,469,458,461
816876,468,459,462
816877,466,461,462
816878,465,461,461
816879,466,460,461
816880,462,461,459
816881,458,461,462
816882,453,460,463
816883,447,462,462
816884,445,460,461
816885,443,461,461
816886,441,458,459
816887,439,460,461
816888,438,461,461
816889,440,460,461
816890,442,459,461
816891,443,461,460
816892,447,460,461
816893,449,461,458
816894,454,460,461
816895,454,461,460
816896,456,461,462
816897,457,461,461
816898,457,459,462
816899,456,461,461
816900,456,459,463
816901,453,460,462
816902,451,461,462
816903,449,461,461
816904,447,461,461
816905,445,457,462
816906,446,460,461
816907,444,461,461
816908,446,461,462
816909,447,458,462
816910,448,458,462
816911,450,459,462
816912,451,461,459
816913,453,460,460
816914,453,460,457
816915,453,460,462
816916,448,460,462
816917,451,460,462
816918,447,461,462
816919,446,460,461
816920,440,461,462
816921,437,460,462
816922,438,459,461
816923,436,457,461
816924,434,461,460
816925,433,460,461
816926,433,461,461
816927,431,461,462
816928,435,460,462
816929,433,462,461
816930,436,458,461
816931,436,460,461
816932,435,461,462
816933,436,461,461
816934,438,461,461
816935,437,460,461
816936,435,460,459
816937,430,461,462
816938,433,461,463
816939,429,460,461
816940,427,460,461
816941,424,460,462
816942,420,459,463
816943,416,461,461
816944,416,459,462
816945,415,461,461
816946,411,458,461
816947,411,457,461
816948,412,460,459
816949,412,459,462
816950,411,461,460
816951,411,461,460
816952,409,461,461
816953,407,462,462
816954,404,460,461
816955,399,461,462
816956,400,460,459
816957,399,460,462
816958,398,460,462
816959,396,461,462
816960,396,460,460
816961,393,460,463
816962,396,459,462
816963,398,460,460
816964,395,461,462
816965,396,462,462
816966,396,458,461
816967,398,459,459
816968,400,459,461
816969,405,459,460
816970,409,460,462
816971,410,458,461
816972,414,460,462
816973,417,457,462
816974,417,461,460
816975,417,461,462
816976,417,460,460
816977,415,460,460
816978,415,459,462
816979,415,461,461
816980,412,459,460
816981,412,459,460
816982,411,460,460
816983,412,461,460
816984,412,461,462
816985,413,461,461
816986,415,460,461
816987,417,461,462
816988,421,458,461
816989,425,460,462
816990,429,459,462
816991,431,459,461
816992,432,459,460
816993,433,460,460
816994,437,461,462
816995,437,459,461
816996,438,460,462
816997,438,460,461
816998,437,459,460
816999,435,459,462
817000,435,459,462
817001,433,459,462
817002,432,461,461
817003,430,460,462
817004,432,460,462
817005,431,460,461
817006,431,461,463
817007,431,459,461
817008,432,461,461
817009,435,460,461
817010,437,460,461
817011,440,459,461
817012,439,460,461
817013,448,459,461
817014,441,463,462
817015,446,461,461
817016,445,459,462
817017,443,460,462
817018,442,460,462
817019,437,460,462
817020,440,460,460
817021,437,459,462
817022,434,461,461
817023,433,461,462
817024,433,457,460
817025,434,460,461
817026,435,460,461
817027,437,460,461
817028,441,459,462
817029,445,461,461
817030,447,460,461
817031,451,461,462
817032,452,460,460
817033,454,462,463
817034,459,462,461
817035,459,459,461
817036,458,460,461
817037,459,458,461
817038,456,460,462
817039,456,459,461
817040,452,460,462
817041,447,461,462
817042,448,463,459
817043,447,460,461
817044,447,462,462
817045,449,459,462
817046,451,460,461
817047,450,460,460
817048,452,459,461
817049,454,461,461
817050,456,461,462
817051,459,461,462
817052,463,458,463
817053,464,460,461
817054,465,459,462
817055,464,460,462
817056,464,460,461
817057,468,461,462
817058,465,460,461
817059,461,462,462
817060,460,458,462
817061,458,460,461
817062,457,460,459
817063,455,461,463
817064,456,460,461
817065,452,461,461
817066,454,460,461
817067,453,458,463
817068,457,460,462
817069,458,460,461
817070,459,460,461
817071,460,461,462
817072,464,459,461
817073,465,461,458
817074,463,461,461
817075,463,459,462
817076,460,457,462
817077,459,460,462
817078,458,459,462
817079,455,460,462
817080,450,459,463
817081,450,461,459
817082,448,460,462
817083,446,459,462
817084,445,459,460
817085,447,461,461
817086,449,459,461
817087,450,459,462
817088,451,459,461
817089,451,461,459
817090,451,459,462
817091,454,459,460
817092,454,460,460
817093,455,459,462
817094,456,459,461
817095,455,459,461
817096,457,459,462
817097,456,460,462
817098,455,459,463
817099,453,459,461
817100,451,460,462
817101,449,460,462
817102,447,460,461
817103,444,458,463
817104,444,462,460
817105,439,460,461
817106,439,460,461
817107,441,460,459
817108,441,458,461
817109,443,458,461
817110,443,460,461
817111,444,462,459
817112,445,459,460
817113,449,458,462
817114,451,460,461
817115,451,458,462
817116,446,461,460
817117,440,458,460
817118,438,458,460
817119,432,460,460
817120,433,460,461
817121,432,460,461
817122,431,461,461
817123,431,462,459
817124,432,460,460
817125,433,462,462
817126,437,460,460
817127,441,460,461
817128,444,461,461
817129,449,460,460
817130,450,461,461
817131,451,461,462
817132,450,461,461
817133,453,460,462
817134,453,461,461
817135,451,461,462
817136,445,461,460
817137,442,462,460
817138,440,460,461
817139,434,461,459
817140,433,460,459
817141,432,460,462
817142,433,460,459
817143,430,460,461
817144,430,460,461
817145,429,458,461
817146,427,461,462
817147,432,461,463
817148,433,457,461
817149,438,459,461
817150,439,460,460
817151,443,459,463
817152,442,460,461
817153,447,460,462
817154,447,461,461
817155,448,461,461
817156,450,461,461
817157,450,460,462
817158,445,460,460
817159,444,458,460
817160,440,460,459
817161,441,460,460
817162,438,460,461
817163,439,459,461
817164,439,460,459
817165,439,459,462
817166,439,458,460
817167,438,460,461
817168,438,461,461
817169,439,460,461
817170,438,461,459
817171,438,461,460
817172,437,460,461
817173,441,458,462
817174,441,459,461
817175,441,461,460
817176,441,461,462
817177,440,462,462
817178,439,461,460
817179,438,461,459
817180,431,461,461
817181,432,460,461
817182,428,461,462
817183,428,461,462
817184,426,462,462
817185,426,460,460
817186,427,460,461
817187,432,460,462
817188,433,461,461
817189,436,461,461
817190,436,461,461
817191,437,461,460
817192,435,461,462
817193,437,461,461
817194,435,461,460
817195,435,461,461
817196,434,458,460
817197,431,461,461
817198,431,461,459
817199,429,459,462
817200,427,460,462
817201,421,458,460
817202,419,461,462
817203,415,461,461
817204,415,461,461
817205,417,461,461
817206,416,461,461
817207,419,460,461
817208,421,460,459
817209,422,461,463
817210,425,461,461
817211,428,460,461
817212,427,461,461
817213,429,463,460
817214,427,461,462
817215,428,460,462
817216,427,460,460
817217,426,461,460
817218,424,461,461
817219,422,461,461
817220,420,458,461
817221,418,461,461
817222,415,461,462
817223,413,459,461
817224,413,457,461
817225,414,460,460
817226,413,461,461
817227,414,461,461
817228,414,461,462
817229,418,461,461
817230,419,458,462
817231,422,460,462
817232,421,462,461
817233,422,461,463
817234,426,462,460
817235,425,461,460
817236,427,462,461
817237,426,461,461
817238,422,461,462
817239,420,461,462
817240,416,460,461
817241,412,460,457
817242,410,461,463
817243,408,458,461
817244,406,460,462
817245,407,461,460
817246,411,461,462
817247,414,461,460
817248,425,461,462
817249,424,461,463
817250,426,460,462
817251,426,461,462
817252,427,461,460
817253,426,460,462
817254,426,459,463
817255,425,461,461
817256,421,460,461
817257,421,459,462
817258,421,459,461
817259,421,458,460
817260,421,459,462
817261,419,461,459
817262,419,460,461
817263,419,460,461
817264,417,461,457
817265,418,460,459
817266,417,460,462
817267,419,461,461
817268,420,461,461
817269,422,459,461
817270,425,459,461
817271,424,460,460
817272,424,461,459
817273,426,461,461
817274,430,459,461
817275,430,459,461
817276,431,459,461
817277,430,461,459
817278,429,460,459
817279,432,460,462
817280,431,460,461
817281,429,461,460
817282,425,461,462
817283,425,459,461
817284,423,460,461
817285,427,459,462
817286,424,460,459
817287,424,462,459
817288,424,460,460
817289,428,459,461
817290,428,461,461
817291,431,463,460
817292,430,460,462
817293,434,460,461
817294,435,459,461
817295,434,460,462
817296,439,460,461
817297,437,459,461
817298,438,459,459
817299,438,459,460
817300,437,459,461
817301,433,459,462
817302,432,460,460
817303,432,461,461
817304,431,462,461
817305,435,459,460
817306,437,460,462
817307,441,461,462
817308,445,460,460
817309,450,460,462
817310,452,457,461
817311,454,460,460
817312,455,461,463
817313,459,462,460
817314,456,461,459
817315,454,461,462
817316,450,460,461
817317,448,458,460
817318,443,460,461
817319,441,458,461
817320,440,460,461
817321,439,461,461
817322,442,461,461
817323,442,461,461
817324,441,461,463
817325,444,459,461
817326,447,461,461
817327,446,461,461
817328,446,459,462
817329,443,459,461
817330,443,459,461
817331,442,460,463
817332,444,461,459
817333,446,460,461
817334,447,460,462
817335,447,460,462
817336,449,460,461
817337,452,461,461
817338,451,461,462
817339,450,461,460
817340,448,460,461
817341,448,459,462
817342,446,461,461
817343,446,459,461
817344,444,461,461
817345,448,460,462
817346,448,461,462
817347,449,460,460
817348,451,461,459
817349,449,462,462
817350,453,461,461
817351,454,460,462
817352,458,462,460
817353,459,460,461
817354,461,460,460
817355,462,460,462
817356,463,461,461
817357,462,460,462
817358,462,458,462
817359,456,459,461
817360,456,461,462
817361,455,460,461
817362,455,461,457
817363,456,459,460
817364,456,460,462
817365,460,461,462
817366,458,461,462
817367,458,461,460
817368,458,461,461
817369,456,460,463
817370,454,462,461
817371,454,459,461
817372,453,461,460
817373,455,459,459
817374,455,461,459
817375,459,459,461
817376,459,460,461
817377,458,459,462
817378,457,459,461
817379,453,457,461
817380,450,460,459
817381,450,456,461
817382,447,458,460
817383,447,461,461
817384,446,458,460
817385,447,459,461
817386,446,461,462
817387,448,462,461
817388,451,462,461
817389,454,460,461
817390,459,461,460
817391,462,462,460
817392,462,461,462
817393,466,459,461
817394,466,460,462
817395,468,460,462
817396,470,461,461
817397,467,458,461
817398,465,461,465
817399,463,462,461
817400,459,460,458
817401,455,460,462
817402,453,460,460
817403,451,459,461
817404,451,460,460
817405,451,460,462
817406,452,460,462
817407,454,460,462
817408,455,460,461
817409,457,460,463
817410,461,460,461
817411,462,459,461
817412,465,457,460
817413,470,460,462
817414,474,460,462
817415,482,462,462
817416,486,460,461
817417,488,460,461
817418,491,460,461
817419,488,462,462
817420,490,459,461
817421,487,460,462
817422,482,459,459
817423,479,461,462
817424,471,461,459
817425,467,459,461
817426,458,461,461
817427,454,460,461
817428,449,461,461
817429,449,458,461
817430,450,461,462
817431,459,459,462
817432,467,460,460
817433,475,460,462
817434,483,460,461
817435,487,460,461
817436,488,461,460
817437,487,458,461
817438,481,460,463
817439,477,459,460
817440,470,460,460
817441,463,462,461
817442,455,460,463
817443,448,459,462
817444,446,462,462
817445,446,461,461
817446,449,462,461
817447,455,460,463
817448,462,461,462
817449,466,461,462
817450,469,460,463
817451,475,460,462
817452,478,461,463
817453,478,461,460
817454,480,461,463
817455,481,461,459
817456,476,461,461
817457,470,461,458
817458,468,461,458
817459,465,461,460
817460,459,460,462
817461,456,461,459
817462,456,460,462
817463,456,460,458
817464,458,462,459
817465,460,461,462
817466,467,460,461
817467,469,460,462
817468,471,460,462
817469,469,460,461
817470,470,461,461
817471,469,460,460
817472,467,459,462
817473,466,460,458
817474,465,460,461
817475,467,459,461
817476,470,461,462
817477,475,461,461
817478,479,460,462
817479,480,460,460
817480,480,457,461
817481,480,457,461
817482,481,461,460
817483,480,459,462
817484,476,460,462
817485,474,460,460
817486,472,460,461
817487,470,461,462
817488,466,460,460
817489,465,461,462
817490,463,459,461
817491,467,460,461
817492,469,460,462
817493,477,461,462
817494,483,461,461
817495,489,463,461
817496,492,460,461
817497,490,459,462
817498,488,460,461
817499,483,461,460
817500,474,460,459
817501,467,460,459
817502,461,460,463
817503,453,461,462
817504,448,459,462
817505,443,459,458
817506,442,460,462
817507,450,461,461
817508,454,461,462
817509,455,461,459
817510,459,458,461
817511,466,459,462
817512,469,461,461
817513,476,461,461
817514,478,460,459
817515,480,459,461
817516,478,458,461
817517,477,461,462
817518,473,460,461
817519,469,459,457
817520,465,459,461
817521,458,458,461
817522,453,460,460
817523,447,462,460
817524,447,458,462
817525,452,460,461
817526,454,461,462
817527,456,461,459
817528,457,458,461
817529,458,460,461
817530,457,460,461
817531,460,458,463
817532,453,461,462
817533,454,461,461
817534,452,460,462
817535,451,463,462
817536,456,461,461
817537,458,461,462
817538,457,461,461
817539,462,459,461
817540,463,462,461
817541,462,459,462
817542,462,460,461
817543,454,460,463
817544,451,460,461
817545,447,459,461
817546,444,459,462
817547,444,460,463
817548,442,461,460
817549,448,462,461
817550,456,460,461
817551,466,460,462
817552,472,460,462
817553,477,459,463
817554,478,461,461
817555,480,460,458
817556,477,461,462
817557,475,462,461
817558,470,460,462
817559,468,461,462
817560,467,461,461
817561,464,460,461
817562,465,460,460
817563,459,462,462
817564,458,460,460
817565,456,460,461
817566,451,463,461
817567,450,461,462
817568,449,460,460
817569,449,460,461
817570,456,461,461
817571,460,461,462
817572,462,459,461
817573,462,460,461
817574,461,458,461
817575,459,461,461
817576,460,460,460
817577,458,459,462
817578,460,459,462
817579,457,461,461
817580,459,459,461
817581,458,461,461
817582,457,462,460
817583,456,459,460
817584,454,462,461
817585,450,459,462
817586,446,461,460
817587,445,461,462
817588,444,459,461
817589,445,461,462
817590,448,461,460
1741017008135,NEW REP,,
817591,452,460,461
817592,452,460,462
817593,459,460,460
817594,462,462,462
817595,461,460,461
817596,466,461,461
817597,468,460,461
817598,465,460,462
817599,464,458,461
817600,464,460,461
817601,460,460,462
817602,458,460,462
817603,454,460,463
817604,449,459,461
817605,443,458,461
817606,439,460,462
817607,438,460,461
817608,439,461,461
817609,441,458,460
817610,445,460,460
817611,450,461,462
817612,452,460,460
817613,458,460,461
817614,460,460,461
817615,461,461,458
817616,460,458,461
817617,457,462,461
817618,458,460,461
817619,461,462,461
817620,460,461,461
817621,466,460,462
817622,468,461,462
817623,469,460,460
817624,470,461,461
817625,468,459,460
817626,470,461,461
817627,469,461,461
817628,467,461,461
817629,467,460,462
817630,466,457,461
817631,463,459,461
817632,460,459,459
817633,457,461,462
817634,458,459,461
817635,458,461,461
817636,461,460,460
817637,461,461,461
817638,463,460,462
817639,466,461,461
817640,468,461,460
817641,472,462,459
817642,468,461,460
817643,469,460,459
817644,465,460,460
817645,461,460,462
817646,457,461,461
817647,454,462,462
817648,452,460,461
817649,449,461,461
817650,446,461,459
817651,447,461,460
817652,446,460,461
817653,447,462,461
817654,452,459,462
817655,460,461,461
817656,470,461,461
817657,481,461,462
817658,489,462,461
817659,488,460,461
817660,480,461,461
817661,468,461,461
817662,457,459,462
817663,449,461,462
817664,444,460,461
817665,442,456,461
817666,437,460,462
817667,439,462,462
817668,440,460,462
817669,443,460,462
817670,450,462,462
817671,458,460,461
817672,463,460,461
817673,464,460,462
817674,468,461,461
817675,467,460,461
817676,464,461,458
817677,463,462,462
817678,462,461,459
817679,461,458,462
817680,459,458,461
817681,457,461,460
817682,457,460,461
817683,456,460,462
817684,457,461,460
817685,460,460,460
817686,462,460,461
817687,467,460,461
817688,469,462,461
817689,474,462,462
817690,471,461,458
817691,466,460,459
817692,460,461,461
817693,463,461,461
817694,467,459,459
817695,472,458,462
817696,474,460,460
817697,474,459,461
817698,470,462,458
817699,466,460,462
817700,461,460,461
817701,459,459,461
817702,459,461,460
817703,457,460,461
817704,454,460,462
817705,451,460,461
817706,449,459,460
817707,449,460,460
817708,448,459,461
817709,450,462,462
817710,452,460,462
817711,454,461,462
817712,453,461,461
817713,454,460,462
817714,457,460,460
817715,461,459,460
817716,467,459,462
817717,472,460,461
817718,475,461,461
817719,474,459,462
817720,466,462,461
817721,461,459,461
817722,451,461,461
817723,454,461,460
817724,450,459,460
817725,453,460,463
817726,454,460,460
817727,454,459,462
817728,451,460,461
817729,452,460,462
817730,454,459,461
817731,455,459,461
817732,459,460,461
817733,464,460,460
817734,468,458,461
817735,468,459,460
817736,469,464,462
817737,466,459,460
817738,463,461,462
817739,458,460,461
817740,453,460,458
817741,453,461,459
817742,455,458,461
817743,459,459,461
817744,457,460,461
817745,453,461,460
817746,450,459,461
817747,449,459,461
817748,448,461,463
817749,453,461,459
817750,459,458,461
817751,464,460,462
817752,467,460,461
817753,467,461,462
817754,469,460,462
817755,470,458,461
817756,471,461,461
817757,472,461,462
817758,473,462,462
817759,469,461,460
817760,469,459,462
817761,465,461,458
817762,464,461,460
817763,463,460,461
817764,462,460,460
817765,456,459,463
817766,452,458,461
817767,448,460,461
817768,448,460,462
817769,449,461,461
817770,447,460,460
817771,444,461,462
817772,444,460,462
817773,447,461,461
817774,454,460,462
817775,461,459,462
817776,465,461,462
817777,468,460,461
817778,462,461,462
817779,459,461,461
817780,462,461,463
817781,465,460,460
817782,466,460,461
817783,464,460,459
817784,466,458,461
817785,465,460,459
817786,465,460,460
817787,464,461,462
817788,465,460,461
817789,465,459,461
817790,463,460,462
817791,461,460,462
817792,457,461,461
817793,450,459,461
817794,445,460,462
817795,439,460,462
817796,436,459,462
817797,435,460,459
817798,437,461,461
817799,442,459,462
817800,445,461,461
817801,451,460,462
817802,456,460,460
817803,462,460,461
817804,467,457,460
817805,468,460,461
817806,470,460,461
817807,473,460,462
817808,478,462,462
817809,480,460,460
817810,483,461,460
817811,486,462,461
817812,485,461,461
817813,488,460,460
817814,486,462,461
817815,484,461,461
817816,483,460,461
817817,480,461,458
817818,481,459,460
817819,480,460,462
817820,471,461,461
817821,463,462,460
817822,453,460,462
817823,445,460,462
817824,443,460,463
817825,441,461,460
817826,448,460,461
817827,454,460,462
817828,463,462,462
817829,471,461,460
817830,476,459,460
817831,479,462,461
817832,483,461,461
817833,485,460,461
817834,489,458,461
817835,488,461,461
817836,488,461,458
817837,488,460,462
817838,488,461,462
817839,487,459,460
817840,485,459,462
817841,482,462,462
817842,477,461,462
817843,471,460,461
817844,464,461,461
817845,456,460,461
817846,450,460,461
817847,445,460,463
817848,443,461,463
817849,443,459,461
817850,446,460,460
817851,448,460,462
817852,448,461,460
817853,450,459,460
817854,455,465,461
817855,464,460,461
817856,469,460,461
817857,474,459,460
817858,476,461,462
817859,473,461,460
817860,472,460,461
817861,474,458,461
817862,472,462,459
817863,470,461,461
817864,466,459,461
817865,461,460,460
817866,453,460,460
817867,451,459,461
817868,448,460,461
817869,452,462,461
817870,456,461,460
817871,462,460,462
817872,466,460,461
817873,470,460,461
817874,472,461,460
817875,467,461,461
817876,460,461,461
817877,455,460,460
817878,448,461,461
817879,444,459,461
817880,440,460,460
817881,447,459,461
817882,453,461,462
817883,459,461,460
817884,463,461,459
817885,471,461,462
817886,477,459,462
817887,485,461,460
817888,490,460,461
817889,492,460,460
817890,489,461,461
817891,487,461,461
817892,484,461,460
817893,481,460,462
817894,476,460,461
817895,476,460,460
817896,480,460,462
817897,481,460,461
817898,484,461,460
817899,487,461,459
817900,490,458,461
817901,486,460,461
817902,481,461,461
817903,475,461,462
817904,470,462,461
817905,464,462,460
817906,458,460,461
817907,457,461,461
817908,463,460,459
817909,472,461,461
817910,481,462,461
817911,493,458,461
817912,502,457,461
817913,508,461,462
817914,512,462,462
817915,512,460,461
817916,510,461,461
817917,510,458,460
817918,507,462,461
817919,505,460,460
817920,502,459,460
817921,493,461,462
817922,484,462,461
817923,472,462,462
817924,461,460,461
817925,453,460,463
817926,447,461,461
817927,441,460,462
817928,440,460,461
817929,437,461,460
817930,439,460,461
817931,442,461,462
817932,444,462,461
817933,447,462,462
817934,457,458,461
817935,475,460,463
817936,483,461,459
817937,497,460,461
817938,504,460,462
817939,505,461,461
817940,506,461,461
817941,502,460,461
817942,503,461,461
817943,503,460,459
817944,497,461,461
817945,496,461,461
817946,492,459,459
817947,486,460,461
817948,479,460,462
817949,474,463,462
817950,473,461,461
817951,478,459,461
817952,485,458,461
817953,491,460,464
817954,494,461,464
817955,501,460,462
817956,503,461,462
817957,504,461,461
817958,501,461,463
817959,502,461,462
817960,503,460,460
817961,502,460,461
817962,499,461,462
817963,500,460,461
817964,499,461,458
817965,495,459,461
817966,488,462,461
817967,478,459,462
817968,469,459,461
817969,460,460,461
817970,463,462,461
817971,468,460,460
817972,478,460,461
817973,484,460,462
817974,489,462,461
817975,497,462,461
817976,495,461,459
817977,491,459,461
817978,485,459,461
817979,477,460,462
817980,467,461,461
817981,470,461,462
817982,476,460,461
817983,480,461,460
817984,485,459,463
817985,485,461,461
817986,488,459,461
817987,494,461,461
817988,499,460,461
817989,503,460,463
817990,507,461,461
817991,512,462,460
817992,515,461,461
817993,516,460,462
817994,516,461,462
817995,518,460,461
817996,515,460,462
817997,514,461,463
817998,515,460,459
817999,516,462,462
818000,517,462,461
818001,520,460,459
818002,526,460,460
818003,525,460,460
818004,517,461,459
818005,505,459,462
818006,492,459,461
818007,479,461,461
818008,470,461,461
818009,461,461,461
818010,461,462,458
818011,468,461,461
818012,481,460,462
818013,488,461,461
818014,505,459,462
818015,515,460,461
818016,522,458,462
818017,526,461,460
818018,525,457,462
818019,524,457,461
818020,519,461,462
818021,511,461,459
818022,503,459,462
818023,496,462,460
818024,490,461,462
818025,485,460,461
818026,477,461,460
818027,471,461,461
818028,473,460,461
818029,473,461,461
818030,478,460,462
818031,479,460,461
818032,488,459,463
818033,489,460,462
818034,492,460,463
818035,492,459,462
818036,490,460,462
818037,486,462,462
818038,482,459,462
818039,479,461,461
818040,476,461,461
818041,472,459,459
818042,472,459,462
818043,471,461,461
818044,473,457,461
818045,474,460,462
818046,475,461,462
818047,476,460,462
818048,478,460,462
818049,482,456,461
818050,489,461,460
818051,498,461,461
818052,506,461,461
818053,508,462,461
818054,514,462,461
818055,517,461,458
818056,523,461,461
818057,528,460,461
818058,529,457,460
818059,525,462,460
818060,520,459,461
818061,513,460,460
818062,510,460,459
818063,508,460,460
818064,506,461,461
818065,503,459,461
818066,499,460,462
818067,496,460,461
818068,496,461,459
818069,496,460,461
818070,500,459,460
818071,500,460,461
818072,501,460,462
818073,501,461,462
818074,500,460,462
818075,495,461,460
818076,490,458,460
818077,482,460,461
818078,480,461,460
818079,476,461,461
818080,474,462,461
818081,473,461,461
818082,471,460,461
818083,471,460,461
818084,468,459,461
818085,462,461,461
818086,457,461,461
818087,450,457,460
818088,448,460,461
818089,447,462,462
818090,450,460,461
818091,457,461,461
818092,464,460,461
818093,471,461,461
818094,475,462,461
818095,475,461,462
818096,474,461,462
818097,474,460,461
818098,471,460,461
818099,473,461,462
818100,473,460,462
818101,475,460,461
818102,478,461,462
818103,477,461,458
818104,477,459,462
818105,477,460,462
818106,476,460,461
818107,477,459,460
818108,478,460,462
818109,478,460,461
818110,481,458,462
818111,481,459,461
818112,481,461,461
818113,484,462,462
818114,487,461,461
818115,487,460,461
818116,489,460,462
818117,490,460,462
818118,490,459,461
818119,488,461,461
818120,486,461,461
818121,483,460,459
818122,479,459,461
818123,476,461,461
818124,472,461,461
818125,472,460,461
818126,469,461,459
818127,468,461,462
818128,467,461,462
818129,469,461,460
818130,469,459,461
818131,472,460,461
818132,473,460,460
818133,472,461,461
818134,474,461,460
818135,475,461,463
818136,474,460,461
818137,473,461,459
818138,470,460,461
818139,469,459,463
818140,466,461,462
818141,461,459,461
818142,454,458,461
818143,444,459,461
818144,436,459,462
818145,431,458,460
818146,428,457,462
818147,428,459,460
818148,432,462,461
818149,438,459,461
818150,446,461,461
818151,449,460,461
818152,453,460,461
818153,456,460,462
818154,453,460,462
818155,449,460,461
818156,444,460,462
818157,438,461,461
818158,435,460,461
818159,437,460,461
818160,440,460,461
818161,441,460,461
818162,447,459,462
818163,452,460,459
818164,455,460,462
818165,456,458,462
818166,457,460,460
818167,460,461,460
818168,462,460,462
818169,463,459,461
818170,464,459,461
818171,466,458,462
818172,467,462,461
818173,470,461,461
818174,472,461,460
818175,475,461,463
818176,476,460,460
818177,477,460,461
818178,478,461,461
818179,477,459,461
818180,476,460,461
818181,475,460,462
818182,473,460,461
818183,471,460,462
818184,472,460,461
818185,470,461,462
818186,468,462,463
818187,468,460,461
818188,470,460,461
818189,471,459,462
818190,473,460,461
818191,474,460,459
818192,473,460,462
818193,477,459,461
818194,476,461,460
818195,480,461,461
818196,479,459,461
818197,480,459,461
818198,479,462,463
818199,478,459,461
818200,475,460,461
818201,471,461,462
818202,472,459,461
818203,466,460,459
818204,463,460,459
818205,460,461,462
818206,457,461,460
818207,453,461,462
818208,456,460,462
818209,456,460,460
818210,458,461,460
818211,462,460,460
818212,463,459,461
818213,466,460,459
818214,467,462,462
818215,470,460,460
818216,468,461,462
818217,469,460,462
818218,465,460,460
818219,461,460,460
818220,456,459,462
818221,448,457,461
818222,438,461,461
818223,432,460,462
818224,425,458,462
818225,424,461,460
818226,426,460,461
818227,426,459,460
818228,430,460,460
818229,434,461,461
818230,436,459,461
818231,440,459,462
818232,446,456,459
818233,450,458,462
818234,453,460,459
818235,459,459,462
818236,460,461,459
818237,461,460,461
818238,459,463,461
818239,460,460,462
818240,460,460,459
818241,458,459,461
818242,455,460,461
818243,452,459,462
818244,453,460,462
818245,451,462,461
818246,449,460,462
818247,450,462,460
818248,449,460,460
818249,449,460,460
818250,450,459,461
818251,452,460,461
818252,454,460,460
818253,455,461,459
818254,456,461,460
818255,460,459,462
818256,461,460,460
818257,462,461,461
818258,463,459,461
818259,462,460,461
818260,462,460,461
818261,459,461,461
818262,459,461,462
818263,456,458,461
818264,453,458,462
818265,453,458,460
818266,453,460,461
818267,450,462,460
818268,449,462,462
818269,449,460,462
818270,452,461,460
818271,454,460,460
818272,455,460,462
818273,455,459,463
818274,451,460,461
818275,454,461,462
818276,451,461,460
818277,452,462,461
818278,453,459,460
818279,453,461,462
818280,451,462,462
818281,449,460,461
818282,447,460,462
818283,447,459,461
818284,446,459,459
818285,444,458,460
818286,443,459,462
818287,443,459,461
818288,446,460,461
818289,445,460,460
818290,445,458,460
818291,443,460,462
818292,441,460,462
818293,442,460,462
818294,448,459,462
818295,451,460,461
818296,451,461,458
818297,450,459,461
818298,454,460,460
818299,457,458,461
818300,457,459,461
818301,457,459,461
818302,454,460,461
818303,453,459,462
818304,451,460,463
818305,452,461,462
818306,453,460,461
818307,453,457,461
818308,455,462,461
818309,458,460,460
818310,462,459,460
818311,465,460,461
818312,467,459,459
818313,470,460,463
818314,474,461,462
818315,472,460,460
818316,474,461,462
818317,477,461,462
818318,474,460,462
818319,472,460,461
818320,470,460,461
818321,468,462,462
818322,465,458,460
818323,461,460,463
818324,458,460,462
818325,456,461,461
818326,456,459,461
818327,458,459,461
818328,458,460,460
818329,459,460,459
818330,463,461,461
818331,467,457,460
818332,470,459,461
818333,472,460,461
818334,473,460,460
818335,474,460,461
818336,477,459,461
818337,478,461,460
818338,480,459,462
818339,480,459,462
818340,480,460,462
818341,481,458,460
818342,480,460,461
818343,479,460,461
818344,478,461,462
818345,476,460,460
818346,476,460,462
818347,477,461,460
818348,479,460,461
818349,481,460,459
818350,483,460,460
818351,488,460,463
818352,490,461,463
818353,493,459,462
818354,494,457,463
818355,498,460,462
818356,498,460,461
818357,498,460,461
818358,498,459,462
818359,497,457,461
818360,494,459,462
818361,492,460,461
818362,490,460,462
818363,487,459,461
818364,482,461,463
818365,477,461,462
818366,475,460,462
818367,471,458,461
818368,470,460,463
818369,472,460,461
818370,475,459,462
818371,482,459,460
818372,486,459,461
818373,491,459,461
818374,493,462,462
818375,496,460,461
818376,499,460,460
818377,500,460,462
818378,500,460,461
818379,496,460,461
818380,495,459,461
818381,493,460,459
818382,496,461,461
818383,492,462,461
818384,498,460,462
818385,498,460,462
818386,496,460,461
818387,495,460,461
818388,493,461,461
818389,492,461,462
818390,492,460,461
818391,494,457,460
818392,494,461,460
818393,499,460,462
818394,499,459,462
818395,501,462,463
818396,502,460,459
818397,502,460,461
818398,503,459,461
818399,501,461,461
818400,495,460,462
818401,488,460,461
818402,481,458,461
818403,476,459,461
818404,468,460,459
818405,466,458,461
818406,465,461,460
818407,466,460,462
818408,468,462,462
818409,473,462,463
818410,476,457,460
818411,482,460,462
818412,490,460,463
818413,496,461,460
818414,500,460,458
818415,503,461,462
818416,506,461,461
818417,505,460,462
818418,506,458,461
818419,503,461,460
818420,498,460,459
818421,496,462,462
818422,493,461,462
818423,492,461,461
818424,489,462,461
818425,487,460,462
818426,487,461,460
818427,484,460,460
818428,482,461,460
818429,482,461,462
818430,480,458,462
818431,479,461,461
818432,479,458,461
818433,478,457,461
818434,480,462,462
818435,481,462,462
818436,484,461,462
818437,485,460,462
818438,487,460,461
818439,482,460,462
818440,483,460,460
818441,478,461,460
818442,474,460,461
818443,469,463,462
818444,463,459,462
818445,460,459,462
818446,458,464,462
818447,456,462,462
818448,452,460,462
818449,456,462,460
818450,456,462,460
818451,456,459,460
818452,458,461,461
818453,459,460,462
818454,460,460,463
818455,466,462,461
818456,468,461,462
818457,471,460,461
818458,471,460,462
818459,468,461,461
818460,468,460,462
818461,463,460,459
818462,460,462,460
818463,455,460,462
818464,449,459,462
818465,446,461,460
818466,442,462,462
818467,440,462,461
818468,441,461,461
818469,439,461,464
818470,443,458,462
818471,449,459,462
818472,455,457,459
818473,459,461,462
818474,464,460,462
818475,468,458,462
818476,472,460,461
818477,474,461,462
818478,475,461,462
818479,474,460,459
818480,474,460,461
818481,473,460,461
818482,471,461,461
818483,467,459,459
818484,465,457,461
818485,463,460,461
818486,460,460,463
818487,458,460,461
818488,456,461,461
818489,455,460,462
818490,455,461,462
818491,455,459,463
818492,456,462,461
818493,456,460,459
818494,452,461,462
818495,453,461,461
818496,452,460,462
818497,453,458,462
818498,456,460,462
818499,458,458,461
818500,458,461,461
818501,460,459,461
818502,463,460,462
818503,461,460,460
818504,459,461,461
818505,458,460,462
818506,457,460,461
818507,458,460,461
818508,456,460,460
818509,460,460,460
818510,464,460,462
818511,468,461,462
818512,473,458,462
818513,479,458,461
818514,483,461,462
818515,491,461,461
818516,497,458,462
818517,500,460,459
818518,503,459,462
818519,503,460,462
818520,504,461,461
818521,504,460,460
818522,503,460,461
818523,501,461,461
818524,498,460,461
818525,497,460,462
818526,493,459,461
818527,494,459,462
818528,494,460,462
818529,492,460,461
818530,494,460,461
818531,495,458,461
818532,501,460,461
818533,501,461,461
818534,502,462,459
818535,505,461,462
818536,505,461,462
818537,507,459,460
818538,507,461,462
818539,509,460,462
818540,508,461,459
818541,508,460,460
818542,508,460,462
818543,505,460,460
818544,499,460,460
818545,495,461,461
818546,492,461,460
818547,491,460,461
818548,488,460,461
818549,486,459,462
818550,484,459,462
818551,481,460,459
818552,485,459,459
818553,486,457,461
818554,487,460,461
818555,486,460,462
818556,491,460,461
818557,496,460,461
818558,502,461,461
818559,506,461,460
818560,511,459,460
818561,512,458,461
818562,513,458,462
818563,514,459,461
818564,512,459,461
818565,511,459,461
818566,512,459,461
818567,511,460,462
818568,513,461,458
818569,515,461,461
818570,518,460,462
818571,522,461,459
818572,527,459,459
818573,528,460,463
818574,528,459,462
818575,523,459,459
818576,524,460,461
818577,519,459,461
818578,517,458,461
818579,515,459,461
818580,514,459,461
818581,516,460,461
818582,515,461,461
818583,517,462,460
818584,518,459,460
818585,515,460,460
818586,516,461,461
818587,516,458,461
818588,516,457,460
818589,516,460,462
818590,513,462,458
818591,513,460,460
818592,512,460,462
818593,508,459,459
818594,502,460,462
818595,504,458,462
818596,508,460,462
818597,512,461,461
818598,516,458,460
818599,519,460,461
818600,519,461,461
818601,520,457,461
818602,520,458,462
818603,515,460,461
818604,517,459,460
818605,514,461,462
818606,512,460,461
818607,509,459,462
818608,507,459,460
818609,504,461,460
818610,506,457,463
818611,505,460,461
818612,507,460,462
818613,509,459,462
818614,509,460,459
818615,514,459,462
818616,518,460,460
818617,519,459,461
818618,522,459,462
818619,521,460,461
818620,516,459,462
818621,514,460,459
818622,510,460,459
818623,504,459,461
818624,500,460,462
818625,497,460,461
818626,493,459,461
818627,490,460,462
818628,490,460,462
818629,488,460,462
818630,490,460,460
818631,492,459,461
818632,499,459,461
818633,502,459,462
818634,505,458,463
818635,509,457,461
818636,512,459,462
818637,514,460,462
818638,515,460,458
818639,517,461,461
818640,521,460,462
818641,523,459,462
818642,522,461,460
818643,522,460,461
818644,518,460,460
818645,511,460,459
818646,509,460,461
818647,505,461,460
818648,499,460,461
818649,496,460,463
818650,492,461,462
818651,491,459,461
818652,494,460,461
818653,500,458,461
818654,505,458,461
818655,509,460,459
818656,512,460,461
818657,515,460,461
818658,519,461,458
818659,520,458,461
818660,520,462,461
818661,521,461,461
818662,519,461,461
818663,520,461,461
818664,517,460,461
818665,515,460,461
818666,513,460,461
818667,512,462,461
818668,512,460,462
818669,510,462,462
818670,511,461,460
818671,511,461,461
818672,512,459,461
818673,513,461,461
818674,513,460,462
818675,517,459,461
818676,515,459,462
818677,514,460,461
818678,514,460,462
818679,512,461,461
818680,508,460,462
818681,505,460,461
818682,500,461,461
818683,495,461,462
818684,488,459,460
818685,483,460,461
818686,478,458,461
818687,473,460,461
818688,470,460,460
818689,468,461,459
818690,465,460,461
818691,465,460,460
818692,468,458,461
818693,468,460,462
818694,470,459,460
818695,469,459,461
818696,472,461,462
818697,473,461,462
818698,474,461,462
818699,474,460,462
818700,476,460,463
818701,474,461,462
818702,474,460,461
818703,471,458,462
818704,470,459,460
818705,470,459,461
818706,469,460,462
818707,467,459,460
818708,466,462,460
818709,467,461,460
818710,470,459,461
818711,469,460,462
818712,472,461,459
818713,471,459,461
818714,472,458,460
818715,471,457,459
818716,472,457,462
818717,473,460,461
818718,471,460,462
818719,467,461,461
818720,465,459,462
818721,461,461,459
818722,458,462,458
818723,455,459,461
818724,453,460,462
818725,450,460,462
818726,448,460,462
818727,444,462,460
818728,441,457,461
818729,442,460,462
818730,441,461,462
818731,443,459,461
818732,441,460,461
818733,442,461,461
818734,444,459,461
818735,446,460,459
818736,450,460,461
818737,451,461,460
818738,451,459,462
818739,450,462,458
818740,449,461,458
818741,448,461,462
818742,445,459,461
818743,442,460,462
818744,434,461,459
818745,431,459,459
818746,429,461,463
818747,426,461,462
818748,423,460,461
818749,423,456,461
818750,423,459,461
818751,423,461,460
818752,426,460,460
818753,425,460,461
818754,430,460,462
818755,432,460,462
818756,434,460,462
818757,436,461,461
818758,434,462,460
818759,435,460,461
818760,433,460,462
818761,436,461,461
818762,438,460,463
818763,435,462,460
818764,432,459,462
818765,428,460,462
818766,425,461,461
818767,422,460,460
818768,420,460,461
818769,419,461,462
818770,416,461,459
818771,417,458,460
818772,417,461,462
818773,418,459,461
818774,422,461,462
818775,422,460,460
818776,427,461,461
818777,432,459,462
818778,433,461,461
818779,431,461,459
818780,426,459,460
818781,419,462,460
818782,415,460,462
818783,413,461,461
818784,413,460,461
818785,412,460,461
818786,410,462,462
818787,409,460,461
818788,409,461,462
818789,412,459,459
818790,413,461,462
818791,416,460,460
818792,415,462,460
818793,420,462,461
818794,421,462,462
818795,425,459,462
818796,428,461,460
818797,430,462,460
818798,432,460,461
818799,433,461,461
818800,434,461,462
818801,431,462,461
818802,432,460,461
818803,430,459,461
818804,430,460,461
818805,429,460,462
818806,425,462,460
818807,424,461,461
818808,423,460,462
818809,423,461,462
818810,423,461,462
818811,421,462,462
818812,421,460,461
818813,419,461,462
818814,419,459,461
818815,421,459,462
818816,419,465,460
818817,420,461,459
818818,421,461,459
818819,421,461,461
818820,420,458,460
818821,419,460,461
818822,419,461,462
818823,419,459,461
818824,419,461,460
818825,418,460,462
818826,418,461,462
818827,417,460,460
818828,416,461,461
818829,416,461,461
818830,414,460,460
818831,416,460,461
818832,415,461,460
818833,415,459,462
818834,410,461,462
818835,412,461,463
818836,413,460,461
818837,416,461,461
818838,417,461,460
818839,418,461,462
818840,414,461,460
818841,411,460,462
818842,407,458,460
818843,403,458,461
818844,403,462,461
818845,401,462,461
818846,401,461,460
818847,401,461,459
818848,403,457,460
818849,404,457,461
818850,407,460,461
818851,408,461,463
818852,411,462,461
818853,412,461,460
818854,414,461,461
818855,411,462,461
818856,411,460,463
818857,413,458,461
818858,413,462,461
818859,413,460,462
818860,414,460,461
818861,412,460,462
818862,410,460,462
818863,406,460,461
818864,401,462,461
818865,399,459,461
818866,396,461,463
818867,394,462,460
818868,393,460,462
818869,391,460,461
818870,391,460,463
818871,389,459,461
818872,389,459,462
818873,391,461,458
818874,391,460,461
818875,391,461,461
818876,396,462,462
818877,398,460,461
818878,401,460,462
818879,406,461,461
818880,408,459,461
818881,407,460,462
818882,407,461,462
818883,400,460,459
818884,396,460,462
818885,395,461,462
818886,393,459,461
818887,392,460,461
818888,389,460,461
818889,389,460,461
818890,388,460,461
818891,390,459,461
818892,395,459,461
818893,399,460,462
818894,402,460,462
818895,406,460,462
818896,407,461,459
818897,404,461,462
818898,405,461,461
818899,407,461,459
818900,405,458,462
818901,403,461,459
818902,406,461,462
818903,404,462,459
818904,401,461,463
818905,404,460,460
818906,405,459,461
818907,404,459,461
818908,405,460,462
818909,406,461,462
818910,406,461,462
818911,406,461,461
818912,407,462,462
818913,407,461,461
818914,409,460,461
818915,410,461,459
818916,410,460,462
818917,413,461,461
818918,413,460,461
818919,415,460,462
818920,415,461,460
818921,416,460,461
818922,412,461,461
818923,413,461,459
818924,412,461,460
818925,412,461,460
818926,408,460,461
818927,405,458,462
818928,403,460,462
818929,400,461,461
818930,401,460,461
818931,402,460,462
818932,405,459,462
818933,409,459,461
818934,416,459,462
818935,418,461,459
818936,425,462,461
818937,425,459,463
818938,428,461,462
818939,425,459,460
818940,423,461,459
818941,416,461,461
818942,413,461,460
818943,409,460,461
818944,406,461,461
818945,403,460,461
818946,403,460,459
818947,406,460,462
818948,406,460,461
818949,406,460,462
818950,406,460,462
818951,409,460,462
818952,410,460,461
818953,410,459,461
818954,412,458,461
818955,414,460,461
818956,413,460,463
818957,416,460,459
818958,415,461,462
818959,418,460,462
818960,422,460,463
818961,424,460,461
818962,424,459,462
818963,424,460,462
818964,424,461,461
818965,423,460,461
818966,422,461,461
818967,419,461,461
818968,416,461,461
818969,415,461,461
818970,414,461,463
818971,414,461,460
818972,415,460,461
818973,415,459,461
818974,417,460,460
818975,421,460,462
818976,423,460,461
818977,423,462,460
818978,427,462,462
818979,427,461,461
818980,426,462,462
818981,426,459,460
818982,427,461,460
818983,425,462,460
818984,421,461,462
818985,425,462,461
818986,423,461,461
818987,425,458,462
818988,427,458,462
818989,429,458,461
818990,432,459,461
818991,434,461,461
818992,436,460,460
818993,438,462,461
818994,438,461,462
818995,438,459,461
818996,439,461,461
818997,439,458,461
818998,437,460,461
818999,442,455,462
819000,440,462,461
819001,440,459,462
819002,439,457,462
819003,438,461,462
819004,437,460,462
819005,435,460,461
819006,436,461,461
819007,433,461,461
819008,430,462,460
819009,426,462,461
819010,424,462,462
819011,422,461,458
819012,423,462,462
819013,427,460,463
819014,428,461,461
819015,435,461,462
819016,435,459,463
819017,437,461,461
819018,438,460,461
819019,439,460,463
819020,435,460,461
819021,437,463,462
819022,439,461,460
819023,436,461,462
819024,436,462,461
819025,435,462,462
819026,434,460,461
819027,435,460,462
819028,435,460,461
819029,436,459,461
819030,431,460,461
819031,430,462,462
819032,429,459,462
819033,432,462,462
819034,432,464,462
819035,433,459,460
819036,434,460,462
819037,435,460,461
819038,436,461,461
819039,436,460,459
819040,436,461,462
819041,438,462,458
819042,438,462,461
819043,440,461,461
819044,441,461,462
819045,440,459,462
819046,440,459,461
819047,441,462,462
819048,439,460,460
819049,436,461,463
819050,433,461,462
819051,435,462,461
819052,435,460,460
819053,435,459,462
819054,435,459,462
819055,438,460,462
819056,437,462,459
819057,438,461,462
819058,443,460,462
819059,441,461,461
819060,443,460,462
819061,442,459,461
819062,441,461,461
819063,441,460,461
819064,439,458,462
819065,438,457,462
819066,434,459,462
819067,431,459,461
819068,430,461,460
819069,429,462,462
819070,428,461,462
819071,428,461,462
819072,428,461,462
819073,429,460,462
819074,428,460,462
819075,429,459,462
819076,429,459,462
819077,430,460,462
819078,430,461,462
819079,430,461,461
819080,431,460,462
819081,431,461,461
819082,435,462,462
819083,440,461,462
819084,443,462,460
819085,444,458,462
819086,446,458,461
819087,444,459,461
819088,444,460,462
819089,443,461,462
819090,438,459,461
819091,433,459,462
819092,431,459,462
819093,431,460,461
819094,430,459,461
819095,430,461,462
819096,431,458,461
819097,434,461,462
819098,435,460,461
819099,438,461,463
819100,438,460,462
819101,442,461,461
819102,442,461,462
819103,442,460,461
819104,438,460,461
819105,437,461,462
819106,436,461,461
819107,434,460,460
819108,430,460,461
819109,428,460,462
819110,428,460,459
819111,426,460,462
819112,424,460,462
819113,424,459,461
819114,423,460,463
819115,425,459,461
819116,424,461,463
819117,425,457,462
819118,426,460,463
819119,427,461,461
819120,428,459,459
819121,430,460,462
819122,430,460,461
819123,430,461,461
819124,431,460,462
819125,430,460,461
819126,428,456,460
819127,426,459,462
819128,425,457,460
819129,424,459,461
819130,424,460,461
819131,424,458,461
819132,424,458,461
819133,424,459,461
819134,426,458,462
819135,427,461,462
819136,430,461,463
819137,433,459,461
819138,436,460,462
819139,439,460,462
819140,442,461,462
819141,440,459,461
819142,442,462,462
819143,441,458,461
819144,439,461,463
819145,437,460,461
819146,432,460,461
819147,430,460,461
819148,423,458,461
819149,426,457,461
819150,427,458,462
819151,428,461,461
819152,431,460,462
819153,434,461,461
819154,435,461,462
819155,436,459,462
819156,438,460,461
819157,434,459,462
819158,432,454,462
819159,429,460,462
819160,432,460,462
819161,429,460,461
819162,430,461,462
819163,431,459,462
819164,428,460,462
819165,431,460,464
819166,432,461,460
819167,430,460,459
819168,431,461,461
819169,433,461,462
819170,432,461,462
819171,436,460,461
819172,434,460,461
819173,437,460,455
819174,437,460,463
819175,436,461,461
819176,435,460,458
819177,438,460,462
819178,443,460,462
819179,441,460,461
819180,444,461,462
819181,436,459,461
819182,433,459,459
819183,427,461,459
819184,426,461,462
819185,423,460,461
819186,423,461,461
819187,424,461,462
819188,428,460,460
819189,433,458,461
819190,438,460,462
819191,442,459,461
819192,446,460,462
819193,447,461,460
819194,450,460,462
819195,450,460,462
819196,449,460,461
819197,446,459,462
819198,441,460,457
819199,438,462,462
819200,435,460,462
819201,438,461,461
819202,443,460,462
819203,446,460,460
819204,449,460,461
819205,449,457,463
819206,449,462,460
819207,445,459,462
819208,438,460,459
819209,428,459,460
819210,422,461,458
819211,419,458,461
819212,418,459,462
819213,424,459,461
819214,427,459,462
819215,429,461,462
819216,432,459,461
819217,434,459,462
819218,435,459,461
819219,435,462,460
819220,438,460,460
819221,444,460,459
819222,452,460,462
819223,460,460,462
819224,463,458,460
819225,468,461,461
819226,469,460,462
819227,470,460,462
819228,463,459,462
819229,452,460,460
819230,442,460,461
819231,433,460,462
819232,424,459,458
819233,418,461,462
819234,413,457,461
819235,412,458,462
819236,415,459,462
819237,419,460,463
819238,423,460,462
819239,426,460,462
819240,429,460,462
819241,431,459,460
819242,435,460,461
819243,436,460,461
819244,434,459,461
819245,432,460,462
819246,426,458,461
819247,419,461,461
819248,417,459,462
819249,415,460,461
819250,417,462,462
819251,423,460,461
819252,426,458,461
819253,434,461,460
819254,442,460,460
819255,447,461,461
819256,451,462,461
819257,449,460,461
819258,443,460,461
819259,435,460,459
819260,427,461,462
819261,421,461,460
819262,417,458,462
819263,417,459,462
819264,416,460,463
819265,416,461,460
819266,418,458,461
819267,421,460,461
819268,426,461,461
819269,428,460,462
819270,428,461,461
819271,429,459,460
819272,429,458,462
819273,424,460,461
819274,421,462,462
819275,418,461,460
819276,417,462,460
819277,420,460,462
819278,420,460,461
819279,422,460,461
819280,423,458,461
819281,422,460,460
819282,422,460,459
819283,423,461,463
819284,422,459,462
819285,420,462,462
819286,421,459,462
819287,418,461,462
819288,414,459,460
819289,412,461,460
819290,411,460,460
819291,407,461,461
819292,408,460,462
819293,412,460,461
819294,414,460,461
819295,422,460,461
819296,424,461,459
819297,430,459,462
819298,430,460,462
819299,436,460,461
819300,434,460,460
819301,433,459,463
819302,429,461,461
819303,424,459,462
819304,423,459,462
819305,419,461,459
819306,416,461,459
819307,418,461,461
819308,411,459,461
819309,408,459,462
819310,408,459,462
819311,408,461,462
819312,411,458,462
819313,414,460,461
819314,417,460,462
819315,420,461,462
819316,420,460,460
819317,419,460,462
819318,422,460,463
819319,421,459,461
819320,419,462,458
819321,422,461,460
819322,421,461,462
819323,423,460,460
819324,423,461,461
819325,420,461,461
819326,418,461,460
819327,414,459,460
819328,413,461,461
819329,411,461,459
819330,411,461,461
819331,411,461,462
819332,415,461,462
819333,419,462,461
819334,420,460,462
819335,420,461,460
819336,421,461,462
819337,419,461,461
819338,416,459,461
819339,413,460,462
819340,417,461,461
819341,413,460,462
819342,415,460,461
819343,415,461,463
819344,418,457,462
819345,420,461,461
819346,422,460,462
819347,425,460,462
1741017009891,NEW REP,,
819348,423,461,461
819349,421,457,461
819350,417,461,461
819351,414,462,461
819352,412,461,462
819353,412,459,462
819354,411,462,462
819355,415,460,463
819356,419,460,463
819357,420,461,462
819358,422,460,460
819359,419,461,459
819360,420,462,461
819361,419,461,461
819362,415,461,460
819363,414,462,461
819364,415,459,462
819365,413,461,463
819366,411,461,458
819367,411,461,462
819368,414,462,460
819369,414,461,461
819370,415,461,462
819371,417,461,457
819372,418,461,462
819373,416,460,461
819374,416,461,462
819375,415,459,463
819376,417,461,460
819377,416,461,462
819378,411,461,462
819379,410,461,462
819380,409,461,459
819381,408,461,460
819382,405,461,462
819383,407,459,460
819384,404,461,460
819385,399,461,460
819386,402,461,462
819387,402,461,462
819388,401,461,462
819389,401,460,462
819390,399,461,461
819391,398,460,461
819392,399,462,460
819393,398,461,461
819394,398,461,458
819395,405,461,464
819396,411,461,462
819397,418,461,461
819398,418,460,458
819399,415,460,462
819400,413,461,461
819401,414,460,461
819402,411,460,461
819403,412,461,461
819404,407,461,462
819405,400,459,461
819406,399,461,460
819407,397,462,461
819408,398,461,462
819409,398,461,460
819410,401,461,460
819411,404,461,462
819412,407,460,462
819413,411,460,462
819414,413,460,462
819415,415,460,459
819416,418,459,461
819417,413,460,462
819418,415,460,462
819419,413,460,462
819420,413,460,460
819421,412,462,461
819422,413,460,460
819423,410,460,459
819424,409,461,461
819425,409,460,462
819426,406,460,463
819427,402,461,462
819428,399,461,462
819429,397,460,462
819430,392,461,460
819431,392,461,462
819432,395,461,461
819433,394,460,462
819434,392,459,462
819435,390,460,461
819436,392,460,461
819437,393,457,463
819438,394,462,461
819439,395,459,462
819440,394,462,461
819441,396,459,460
819442,396,457,461
819443,395,461,462
819444,395,460,461
819445,396,460,460
819446,397,458,462
819447,397,459,462
819448,397,460,461
819449,395,461,462
819450,388,460,461
819451,386,460,460
819452,383,461,463
819453,381,460,462
819454,382,460,461
819455,382,459,462
819456,384,461,462
819457,383,459,462
819458,384,461,462
819459,385,461,460
819460,389,461,463
819461,391,463,460
819462,395,459,461
819463,398,461,462
819464,398,461,460
819465,400,461,462
819466,399,460,461
819467,397,462,462
819468,395,459,461
819469,396,462,461
819470,396,460,461
819471,390,460,462
819472,389,461,461
819473,388,462,462
819474,387,460,462
819475,389,460,461
819476,390,460,460
819477,391,460,462
819478,394,460,461
819479,395,460,461
819480,398,461,460
819481,399,462,462
819482,403,459,461
819483,403,461,461
819484,405,461,460
819485,399,462,459
819486,395,462,462
819487,388,460,461
819488,383,462,459
819489,378,460,462
819490,376,460,458
819491,371,460,462
819492,371,460,460
819493,369,461,460
819494,374,460,461
