Time (ms),Bicep,Shoulder,Tricep
528889,474,462,463
528890,477,461,462
528891,477,459,462
528892,474,461,461
528893,472,461,462
528894,468,462,463
528895,463,460,462
528896,460,461,462
528897,458,461,460
528898,458,462,462
528899,453,460,462
528900,456,462,461
528901,458,460,463
528902,460,460,459
528903,460,458,462
528904,465,459,463
528905,469,459,462
528906,472,461,462
528907,477,461,462
528908,480,460,462
528909,481,458,462
528910,481,459,462
528911,478,461,462
528912,476,461,460
528913,474,461,463
528914,470,461,461
528915,465,459,463
528916,461,460,462
528917,455,461,460
528918,456,460,462
528919,455,461,460
528920,456,460,461
528921,458,461,462
528922,462,460,459
528923,469,460,462
528924,476,459,459
528925,478,461,462
528926,481,461,461
528927,483,462,461
528928,486,462,461
528929,486,462,460
528930,485,461,462
528931,483,461,462
528932,478,460,463
528933,470,461,463
528934,466,461,462
528935,462,461,459
528936,453,460,463
528937,452,459,462
528938,451,461,461
528939,449,461,463
528940,450,457,460
528941,451,461,460
528942,454,462,459
528943,458,462,461
528944,463,461,462
528945,471,460,460
528946,478,461,461
528947,485,460,462
528948,491,461,462
528949,493,457,462
528950,493,459,462
528951,494,458,463
528952,494,459,462
528953,493,459,463
528954,488,461,462
528955,486,461,461
528956,483,461,460
528957,473,460,463
528958,472,459,462
528959,469,459,462
528960,467,459,461
528961,467,460,463
528962,468,462,462
528963,470,461,462
528964,471,462,461
528965,473,459,462
528966,476,463,462
528967,473,461,461
528968,475,461,461
528969,479,462,461
528970,479,461,463
528971,482,461,461
528972,486,460,461
528973,485,461,462
528974,481,461,459
528975,479,461,462
528976,477,458,461
528977,476,461,462
528978,472,460,461
528979,471,461,461
528980,467,461,461
528981,465,461,462
528982,462,458,462
528983,459,458,461
528984,454,460,463
528985,455,461,460
528986,456,462,461
528987,456,460,462
528988,458,459,462
528989,457,462,463
528990,456,460,462
528991,453,461,461
528992,450,462,462
528993,449,458,461
528994,450,460,461
528995,446,462,461
528996,444,458,461
528997,440,461,459
528998,439,459,461
528999,438,462,462
529000,440,460,460
529001,438,460,458
529002,443,461,460
529003,444,459,462
529004,448,457,461
529005,449,461,461
529006,453,461,462
529007,454,461,461
529008,458,460,460
529009,460,460,463
529010,459,458,462
529011,459,459,462
529012,455,460,462
529013,454,458,462
529014,451,461,459
529015,448,460,462
529016,444,461,463
529017,443,458,461
529018,440,460,462
529019,436,461,462
529020,442,462,464
529021,440,460,459
529022,445,461,463
529023,447,458,461
529024,449,460,461
529025,454,459,462
529026,457,460,461
529027,461,462,460
529028,463,460,462
529029,464,461,462
529030,464,460,463
529031,463,461,461
529032,461,459,460
529033,459,460,460
529034,455,461,461
529035,450,460,461
529036,451,461,461
529037,447,461,460
529038,443,461,460
529039,446,461,464
529040,444,461,463
529041,445,460,462
529042,447,461,460
529043,450,459,462
529044,454,461,461
529045,454,462,463
529046,459,461,461
529047,461,460,461
529048,463,462,461
529049,467,461,463
529050,465,461,461
529051,466,460,460
529052,463,460,464
529053,462,461,462
529054,457,462,462
529055,456,459,461
529056,453,460,463
529057,450,459,463
529058,445,461,462
529059,445,461,461
529060,446,461,460
529061,448,460,460
529062,448,461,460
529063,446,460,462
529064,449,461,463
529065,451,462,460
529066,457,462,461
529067,460,462,462
529068,463,460,462
529069,465,462,462
529070,465,460,462
529071,466,461,459
529072,465,460,462
529073,465,461,461
529074,459,461,462
529075,460,460,461
529076,458,460,461
529077,456,460,462
529078,454,459,461
529079,452,460,461
529080,451,462,461
529081,451,461,460
529082,450,461,464
529083,452,460,460
529087,463,459,462
529087,464,460,462
529088,465,460,462
529089,465,461,459
529090,463,462,461
529091,464,460,462
529092,462,462,462
529093,458,461,461
529094,456,461,460
529095,455,461,461
529096,453,460,461
529096,455,459,461
529097,456,460,462
529098,456,460,457
529099,458,461,462
529100,460,457,461
529101,462,461,461
529102,462,461,462
529103,466,462,460
529104,466,462,461
529104,470,459,461
529105,468,461,458
529106,468,461,461
529107,468,462,459
529108,467,460,459
529109,465,461,462
529110,463,460,461
529111,460,459,462
529112,459,462,461
529113,455,460,462
529114,453,461,461
529115,451,462,463
529116,449,462,462
529117,446,461,462
529118,444,460,461
529119,445,460,463
529120,445,459,461
529121,447,462,462
529122,449,461,461
529123,452,460,460
529124,452,461,461
529125,458,462,462
529126,465,459,461
529127,468,460,462
529128,471,459,461
529129,472,460,459
529130,472,460,462
529131,475,460,461
529132,473,459,462
529133,471,461,460
529134,468,461,462
529135,463,458,460
529136,460,460,461
529137,457,460,462
529138,454,460,462
529139,451,461,459
529140,452,460,462
529141,449,461,462
529142,453,459,461
529143,453,461,462
529144,459,457,460
529145,463,459,461
529146,466,459,462
529147,469,459,462
529148,472,460,461
529149,475,461,461
529150,474,460,462
529151,474,461,461
529152,473,458,461
529153,469,458,461
529154,467,458,462
529155,461,460,462
529156,455,461,463
529157,455,459,461
529158,452,459,462
529159,450,461,462
529160,449,462,461
529161,449,461,461
529162,452,460,460
529163,456,461,462
529164,461,460,461
529165,466,457,460
529166,470,459,460
529167,471,461,462
529168,475,462,461
529169,478,460,462
529170,476,460,463
529171,475,462,461
529172,473,461,460
529173,468,461,459
529174,466,460,463
529175,461,459,462
529176,457,460,462
529177,454,460,463
529178,454,459,462
529179,456,461,464
529180,457,460,462
529181,459,462,460
529182,459,460,461
529183,460,462,462
529184,463,462,464
529185,468,461,461
529186,468,460,459
529187,472,460,461
529188,473,461,462
529189,473,461,461
529190,474,461,460
529191,473,461,463
529192,470,460,461
529193,465,460,460
529194,463,462,461
529195,460,459,462
529196,456,461,462
529197,454,461,462
529198,453,462,463
529199,449,460,462
529200,449,461,461
529201,449,462,459
529202,454,460,461
529203,457,460,459
529204,458,461,461
529205,465,461,460
529206,468,460,461
529207,469,461,460
529208,471,460,463
529209,473,461,461
529210,473,459,461
529211,471,461,461
529212,466,459,463
529213,464,460,462
529214,461,461,462
529215,460,461,462
529216,458,460,460
529217,456,462,462
529218,455,462,458
529219,455,461,461
529220,459,461,460
529221,460,461,461
529222,464,461,462
529223,469,459,462
529224,472,459,460
529225,476,460,462
529226,484,458,460
529227,490,458,461
529228,494,460,461
529229,497,460,460
529230,495,459,462
529231,494,462,460
529232,492,462,461
529233,489,461,461
529234,485,460,463
529235,478,460,463
529236,472,460,461
529237,466,461,461
529238,459,459,461
529239,456,460,461
529240,457,460,461
529241,458,461,463
529242,462,460,461
529243,468,459,461
529244,472,461,460
529245,475,461,459
529246,478,462,458
529247,484,462,462
529248,488,461,462
529249,492,461,463
529250,495,461,462
529251,497,458,462
529252,496,461,459
529253,498,459,462
529254,496,461,461
529255,489,461,463
529256,486,459,462
529257,482,460,462
529258,478,461,461
529259,475,460,461
529260,473,460,461
529261,475,461,462
529262,481,461,461
529263,496,461,462
529264,509,459,461
529265,520,461,462
529266,523,461,461
529267,529,461,461
529268,531,460,461
529269,530,459,461
529270,529,461,459
529271,524,460,461
529272,513,462,459
529273,501,461,462
529274,487,461,462
529275,482,462,462
529276,480,461,460
529277,488,461,462
529278,493,460,461
529279,497,459,462
529280,502,461,461
529281,504,457,462
529282,504,461,460
529283,504,461,460
529284,499,461,461
529285,494,460,460
529286,490,461,462
529287,488,462,456
529288,492,459,462
529289,499,461,461
529290,508,459,461
529291,517,459,461
529292,521,460,461
529293,526,462,462
529294,525,458,463
529295,523,461,462
529296,519,461,463
529297,509,461,463
529298,499,461,461
529299,488,461,463
529300,475,462,462
529301,468,459,462
529302,463,460,463
529303,464,460,460
529304,470,459,461
529305,476,459,462
529306,483,461,461
529307,497,461,460
529308,507,460,463
529309,512,462,461
529310,513,462,461
529311,517,461,462
529312,517,459,462
529313,515,461,461
529314,510,460,462
529315,511,461,462
529316,508,461,461
529317,504,460,464
529318,497,460,462
529319,500,460,461
529320,499,458,462
529321,504,460,459
529322,507,460,460
529323,514,461,460
529324,516,461,462
529325,513,460,459
529326,514,460,462
529327,512,461,462
529328,504,461,461
529329,506,461,463
529330,505,460,462
529331,498,459,463
529332,498,461,462
529333,493,460,461
529334,490,460,462
529335,488,459,461
529336,492,457,461
529337,500,460,463
529338,504,461,462
529339,504,461,460
529340,505,462,462
529341,506,461,462
529342,512,459,461
529343,515,461,460
529344,518,462,462
529345,514,462,462
529346,509,459,459
529347,506,460,461
529348,499,458,461
529349,491,459,461
529350,482,458,460
529351,476,460,459
529352,474,457,462
529353,474,458,461
529354,476,458,463
529355,480,460,463
529356,485,460,461
529357,491,460,462
529358,491,459,462
529359,489,461,462
529360,494,460,462
529361,491,461,460
529362,492,461,462
529363,489,460,462
529364,484,460,461
529365,482,459,462
529366,477,460,461
529367,473,458,462
529368,466,460,458
529369,462,460,463
529370,455,461,461
529371,450,461,461
529372,448,460,459
529373,447,461,461
529374,446,459,461
529375,451,460,462
529376,461,460,463
529377,469,461,461
529378,475,461,462
529379,480,458,462
529380,481,462,461
529381,477,461,462
529382,471,460,462
529383,461,459,462
529384,451,457,461
529385,440,458,462
529386,425,461,462
529387,421,462,460
529388,426,462,463
529389,438,461,462
529390,446,460,461
529391,446,460,459
529392,455,460,461
529393,461,459,461
529394,461,461,462
529395,460,461,461
529396,454,461,462
529397,447,462,461
529398,441,460,461
529399,432,461,461
529400,429,461,460
529401,425,459,462
529402,423,460,462
529403,422,461,461
529404,421,461,462
529405,418,461,462
529406,417,462,462
529407,414,460,462
529408,411,461,460
529409,412,460,461
529410,414,461,463
529411,424,461,463
529412,431,462,462
529413,436,459,462
529414,441,461,463
529415,441,461,462
529416,439,458,462
529417,436,458,462
529418,426,461,462
529419,416,461,460
529420,409,460,463
529421,403,461,462
529422,402,462,461
529423,407,461,460
529424,412,462,461
529425,419,459,462
529426,423,459,463
529427,433,460,461
529428,438,461,462
529429,444,461,462
529430,446,461,462
529431,444,461,462
529432,446,461,461
529433,440,461,462
529434,430,460,463
529435,425,460,461
529436,420,460,459
529437,414,460,461
529438,409,460,462
529439,407,461,461
529440,402,461,459
529441,402,461,463
529442,401,462,462
529443,403,459,462
529444,411,462,460
529445,419,461,462
529446,429,461,462
529447,435,462,462
529448,441,461,463
529449,443,459,462
529450,445,462,462
529451,444,461,462
529452,442,460,461
529453,441,461,463
529454,437,462,459
529455,435,461,460
529456,439,462,463
529457,439,460,463
529458,442,462,462
529459,444,458,461
529460,447,461,462
529461,445,460,462
529462,445,460,462
529463,446,461,463
529464,445,461,462
529465,446,462,463
529466,446,459,462
529467,446,461,462
529468,446,461,461
529469,448,458,462
529470,450,461,463
529471,454,463,461
529472,461,458,461
529473,467,461,463
529474,468,461,462
529475,476,458,462
529476,478,458,462
529477,473,460,461
529478,472,462,463
529479,462,461,463
529480,460,460,460
529481,454,461,461
529482,450,460,463
529483,454,460,463
529484,455,460,462
529485,457,461,463
529486,461,460,463
529487,466,460,461
529488,473,460,461
529489,475,461,462
529490,480,460,462
529491,481,461,464
529492,479,461,460
529493,479,461,462
529494,474,460,459
529495,472,462,461
529496,470,462,461
529497,468,459,460
529498,470,462,461
529499,473,461,460
529500,477,461,460
529501,479,462,461
529502,480,460,463
529503,478,461,462
529504,477,460,461
529505,477,461,462
529506,478,460,459
529507,483,461,460
529508,488,462,462
529509,493,461,461
529510,498,461,460
529511,501,460,462
529512,503,459,462
529513,505,461,461
529514,505,460,461
529515,507,460,461
529516,505,459,462
529517,504,460,462
529518,500,460,459
529519,499,460,461
529520,499,461,462
529521,499,462,462
529522,499,461,460
529523,499,459,462
529524,498,462,462
529525,496,461,458
529526,496,461,460
529527,498,462,462
529528,498,461,461
529529,499,460,461
529530,497,458,462
529531,498,461,461
529532,495,462,463
529533,493,459,462
529534,493,461,462
529535,488,460,461
529536,487,461,463
529537,489,462,462
529538,494,461,461
529539,501,460,462
529540,503,459,461
529541,502,461,462
529542,495,460,462
529543,496,460,462
529544,494,460,462
529545,494,462,464
529546,494,461,462
529547,499,461,464
529548,501,461,463
529549,504,461,462
529550,506,462,462
529551,510,460,463
529552,510,459,462
529553,512,460,462
529554,506,460,462
529555,501,461,463
529556,496,459,462
529557,485,460,462
529558,484,461,462
529559,480,461,461
529560,481,461,462
529561,480,460,461
529562,481,460,462
529563,477,462,459
529564,478,461,463
529565,472,461,460
529566,470,459,462
529567,472,460,462
529568,472,461,462
529569,477,460,464
529570,478,460,462
529571,477,461,462
529572,481,459,463
529573,481,462,459
529574,483,460,462
529575,482,462,461
529576,482,460,462
529577,486,461,461
529578,490,462,461
529579,493,460,462
529580,496,460,462
529581,499,459,461
529582,499,461,463
529583,498,457,462
529584,498,460,463
529585,498,460,461
529586,499,461,460
529587,500,459,461
529588,491,462,463
529589,493,460,464
529590,487,462,462
529591,481,457,461
529592,481,460,462
529593,478,459,461
529594,477,464,460
529595,480,461,461
529596,480,460,463
529597,484,460,462
529598,482,460,462
529599,480,459,462
529600,482,461,461
529601,481,460,462
529602,484,462,462
529603,487,461,461
529604,490,461,462
529605,495,461,462
529606,497,460,461
529607,506,458,461
529608,509,461,462
529609,510,461,462
529610,509,460,461
529611,506,460,462
529612,503,459,461
529613,502,459,462
529614,499,461,462
529615,500,459,461
529616,500,461,462
529617,504,460,461
529618,502,460,461
529619,500,460,463
529620,496,461,461
529621,495,460,462
529622,496,460,461
529623,497,461,462
529624,506,458,461
529625,510,461,463
529626,518,459,461
529627,524,461,460
529628,525,461,460
529629,526,459,458
529630,523,460,463
529631,515,462,458
529632,510,462,462
529633,504,461,462
529634,500,460,461
529635,498,458,462
529636,497,459,463
529637,497,460,461
529638,499,462,459
529639,501,459,461
529640,503,461,462
529641,508,461,459
529642,511,461,463
529643,515,462,461
529644,522,462,463
529645,525,460,463
529646,531,462,462
529647,534,460,462
529648,540,459,462
529649,546,460,459
529650,551,463,459
529651,555,460,462
529652,556,461,461
529653,556,461,459
529654,552,460,463
529655,548,461,463
529656,540,457,461
529657,537,459,462
529658,529,460,460
529659,521,460,461
529660,515,461,462
529661,513,458,461
529662,511,459,461
529663,513,460,461
529664,514,460,462
529665,517,460,462
529666,520,459,461
529667,520,462,462
529668,520,460,458
529669,515,459,461
529670,504,461,460
529671,498,461,460
529672,494,460,462
529673,495,460,461
529674,499,461,460
529675,505,459,461
529676,510,461,464
529677,515,457,462
529678,520,461,462
529679,522,460,462
529680,528,461,460
529681,531,462,463
529682,538,460,462
529683,544,459,460
529684,546,461,461
529685,552,462,462
529686,558,459,462
529687,558,460,460
529688,559,462,462
529689,554,460,462
529690,550,461,462
529691,542,460,460
529692,533,461,462
529693,525,459,460
529694,517,459,460
529695,509,459,462
529696,505,461,461
529697,502,458,460
529698,499,458,460
529699,495,457,461
529700,492,459,460
529701,484,461,460
529702,482,459,462
529703,477,461,459
529704,476,458,461
529705,477,459,462
529706,481,461,462
529707,484,459,463
529708,493,459,461
529709,499,460,462
529710,510,460,461
529711,517,461,461
529712,517,457,461
529713,528,461,461
529714,532,457,460
529715,533,458,462
529716,531,459,460
529717,525,459,461
529718,515,460,460
529719,508,460,463
529720,501,460,460
529721,499,460,462
529722,500,461,463
529723,502,461,461
529724,503,460,461
529725,503,460,461
529726,498,461,460
529727,496,461,459
529728,493,461,462
529729,493,460,462
529730,492,457,461
529731,493,461,461
529732,492,460,461
529733,493,460,462
529734,492,462,459
529735,493,461,462
529736,492,460,461
529737,491,462,460
529738,494,459,462
529739,494,460,460
529740,495,460,462
529741,491,459,462
529742,486,462,461
529743,484,462,462
529744,482,460,462
529745,485,462,462
529746,491,460,462
529747,493,461,462
529748,492,458,461
529749,489,460,463
529750,489,461,462
529751,487,458,461
529752,486,460,462
529753,484,460,461
529754,479,461,462
529755,474,460,461
529756,468,461,462
529757,459,461,461
529758,452,459,461
529759,446,461,461
529760,443,460,460
529761,441,460,462
529762,440,460,461
529763,442,460,462
529764,440,458,462
529765,442,461,462
529766,440,461,462
529767,436,461,461
529768,433,461,459
529769,431,463,460
529770,434,459,462
529771,435,458,460
529772,438,462,461
529773,443,459,460
529774,447,461,462
529775,451,459,462
529776,448,461,462
529777,449,457,461
529778,449,456,461
529779,451,461,460
529780,451,461,462
529781,455,459,461
529782,457,461,460
529783,463,459,462
529784,468,461,461
529785,475,461,462
529786,479,459,462
529787,484,461,462
529788,486,461,461
529789,485,459,460
529790,482,461,459
529791,478,458,462
529792,472,460,463
529793,470,461,462
529794,467,459,461
529795,461,460,460
529796,451,461,459
529797,448,460,463
529798,440,459,461
529799,438,461,462
529800,437,462,463
529801,437,461,460
529802,438,460,462
529803,441,461,463
529804,446,461,461
529805,446,461,463
529806,447,460,462
529807,445,461,461
529808,447,461,462
529809,447,460,462
529810,445,462,460
529811,444,461,460
529812,443,462,461
529813,443,459,463
529814,440,459,462
529815,437,461,463
529816,435,460,464
529817,429,460,466
529818,427,460,462
529819,421,461,460
529820,412,461,458
529821,406,461,458
529822,403,462,460
529823,405,458,461
529824,405,459,463
529825,408,461,461
529826,409,462,463
529827,413,461,462
529828,416,461,461
529829,420,460,461
529830,423,461,463
529831,423,461,461
529832,420,460,461
529833,418,460,462
529834,417,461,461
529835,412,461,461
529836,410,460,462
529837,405,460,461
529838,402,460,461
529839,396,457,462
529840,395,457,462
529841,391,460,461
529842,390,460,458
529843,391,461,461
529844,392,461,462
529845,394,462,462
529846,395,462,462
529847,396,460,462
529848,399,461,461
529849,402,460,462
529850,403,461,462
529851,407,460,461
529852,410,462,462
529853,411,460,461
529854,413,459,461
529855,412,461,460
529856,411,461,461
529857,409,462,463
529858,406,461,462
529859,405,460,462
529860,400,461,461
529861,400,460,462
529862,399,462,461
529863,399,460,462
529864,400,461,462
529865,400,460,462
529866,400,459,460
529867,402,460,461
529868,397,460,463
529869,397,461,459
529870,398,460,462
529871,396,460,462
529872,395,460,462
529873,395,462,463
529874,393,462,460
529875,391,460,462
529876,388,461,462
529877,385,461,462
529878,382,460,462
529879,380,458,460
529880,376,460,461
529881,378,460,462
529882,376,460,462
529883,379,460,461
529884,378,460,461
529885,380,459,462
529886,383,461,462
529887,384,462,461
529888,387,461,463
529889,388,461,460
529890,388,461,461
529891,388,462,460
529892,389,461,462
529893,387,460,458
529894,385,460,463
529895,384,461,459
529896,382,461,462
529897,379,462,460
529898,375,460,462
529899,374,461,462
529900,372,459,463
529901,371,462,460
529902,371,461,462
529903,369,462,463
529904,372,460,462
529905,374,460,461
529906,376,461,461
529907,379,460,462
529908,383,460,460
529909,387,461,462
529910,387,460,463
529911,387,461,461
529912,387,460,460
529913,384,462,460
529914,383,458,462
529915,381,460,461
529916,379,461,462
529917,376,460,461
529918,377,459,462
529919,374,461,462
529920,372,460,461
529921,369,461,465
529922,373,461,462
529923,373,461,460
529924,376,459,463
529925,379,459,463
529926,377,461,462
529927,382,461,464
529928,384,461,461
529929,388,461,460
529930,392,460,461
529931,393,460,462
529932,394,462,463
529933,394,461,461
529934,395,461,464
529935,392,461,462
529936,390,460,463
529937,385,461,462
529938,385,460,461
529939,379,461,461
529940,379,457,462
529941,381,461,462
529942,382,459,461
529943,383,461,462
529944,388,461,462
529945,392,459,461
529946,393,461,461
529947,398,462,460
529948,403,462,463
529949,404,461,461
529950,408,460,462
529951,407,460,462
529952,408,457,460
529953,407,461,462
529954,406,460,461
529955,404,460,462
529956,399,460,460
529957,397,460,460
529958,395,460,461
529959,392,460,462
529960,392,460,460
529961,390,460,462
529962,391,462,460
529963,391,458,461
529964,393,461,461
529965,392,462,461
529966,396,459,462
529967,396,459,462
529968,399,461,461
529969,401,461,462
529970,406,462,461
529971,408,460,462
529972,412,461,462
529973,413,461,461
529974,409,459,462
529975,411,459,462
529976,408,460,463
529977,408,460,463
529978,409,459,463
529979,408,461,462
529980,409,461,461
529981,413,461,461
529982,415,459,461
529983,416,461,460
529984,417,461,460
529985,421,461,460
529986,423,458,460
529987,425,458,461
529988,428,460,460
529989,430,460,461
529990,431,459,461
529991,429,459,461
529992,428,461,461
529993,422,458,462
529994,421,461,461
529995,420,459,463
529996,418,461,461
529997,417,462,462
529998,417,462,460
529999,416,461,462
530000,415,460,462
530001,412,461,463
530002,412,460,462
530003,413,459,461
530004,413,461,462
530005,415,462,462
530006,418,461,459
530007,422,461,460
530008,425,462,460
530009,431,462,462
530010,433,460,461
530011,436,461,462
530012,437,461,457
530013,438,459,461
530014,437,460,461
530015,436,460,462
530016,434,458,461
530017,432,460,457
530018,431,461,462
530019,429,461,462
530020,428,460,462
530021,429,460,461
530022,428,458,463
530023,430,462,463
530024,427,459,463
530025,431,460,458
530026,435,457,460
530027,438,462,462
530028,441,462,461
530029,444,458,460
530030,444,461,463
530031,449,460,461
530032,449,461,461
530033,452,462,461
530034,454,459,461
530035,452,461,462
530036,449,461,461
530037,446,459,462
530038,440,460,463
530039,436,462,461
530040,432,460,462
530041,429,462,460
530042,430,462,461
530043,431,461,462
530044,437,461,461
530045,441,461,462
530046,444,458,463
530047,449,461,459
530048,454,459,461
530049,463,461,463
530050,466,461,459
530051,469,461,463
530052,471,461,463
530053,466,462,461
530054,464,461,459
530055,463,460,461
530056,456,460,460
530057,455,458,463
530058,451,458,462
530059,451,459,462
530060,451,458,462
530061,453,460,463
530062,454,457,462
530063,459,460,463
530064,462,459,462
530065,462,461,459
530066,469,460,461
530067,471,461,462
530068,475,460,462
530069,477,462,462
530070,480,461,461
530071,478,462,460
530072,479,461,460
530073,476,462,462
530074,475,461,463
530075,473,463,459
530076,471,460,457
530077,472,460,461
530078,469,461,458
530079,472,460,462
530080,473,461,462
530081,471,462,462
530082,473,461,463
530083,472,461,462
530084,474,461,463
530085,475,460,460
530086,476,461,461
530087,478,459,461
530088,479,460,462
530089,482,460,462
530090,485,461,462
530091,488,459,462
530092,487,458,462
530093,488,462,461
530094,486,461,461
530095,486,461,462
530096,484,460,461
530097,481,461,462
530098,477,461,461
530099,473,461,463
530100,468,459,463
530101,466,460,463
530102,462,459,461
530103,462,460,463
530104,462,461,462
530105,463,460,462
530106,464,461,463
530107,471,459,460
530108,479,461,462
530109,481,461,463
530110,484,462,462
530111,485,458,462
530112,486,461,461
530113,483,462,462
530114,485,460,463
530115,483,461,462
530116,482,462,464
530117,480,461,463
530118,472,459,463
530119,471,458,460
530120,466,462,461
530121,465,461,463
530122,462,461,462
530123,463,462,462
530124,464,460,462
530125,464,461,461
530126,467,460,463
530127,468,461,459
530128,469,461,460
530129,476,460,459
530130,478,461,461
530131,485,458,462
530132,484,462,464
530133,490,461,463
530134,490,461,462
530135,485,460,463
530136,486,460,463
530137,484,459,461
530138,482,462,462
530139,482,461,462
530140,481,460,461
530141,476,460,463
530142,479,460,461
530143,478,459,462
530144,479,460,463
530145,480,460,461
530146,481,461,462
530147,481,460,460
530148,481,459,462
530149,481,460,462
530150,480,460,461
530151,480,461,462
530152,478,461,459
530153,478,458,461
530154,476,461,461
530155,474,460,463
530156,473,460,463
530157,468,460,460
530158,465,461,460
530159,465,459,460
530160,461,461,461
530161,460,459,462
530162,458,461,462
530163,456,457,461
530164,454,462,462
530165,460,457,461
530166,461,462,462
530167,466,461,463
530168,468,458,461
530169,470,461,461
530170,469,459,459
530171,468,460,460
530172,461,460,462
530173,455,463,463
530174,450,461,459
530175,446,462,463
530176,442,460,463
530177,439,461,462
530178,433,461,463
530179,431,461,462
530180,431,461,463
530181,429,459,461
530182,432,461,461
530183,436,458,462
530184,441,461,460
530185,447,460,462
530186,451,462,462
530187,454,461,463
530188,456,461,461
530189,455,460,459
530190,458,461,462
530191,458,460,462
530192,459,461,461
530193,458,459,463
530194,457,461,460
530195,455,461,462
530196,454,460,461
530197,451,460,462
530198,450,460,462
530199,448,463,462
530200,443,461,463
530201,443,461,461
530202,440,461,461
530203,440,461,463
530204,438,460,459
530205,438,458,462
530206,438,458,462
530207,439,459,461
530208,442,458,461
530209,444,461,461
530210,446,461,462
530211,446,461,461
530212,448,461,462
530213,452,459,461
530214,450,458,461
530215,449,463,461
530216,443,459,461
530217,437,461,462
530218,433,461,459
530219,429,461,461
530220,428,461,462
530221,427,460,462
530222,424,461,462
530223,431,462,460
530224,434,462,462
530225,439,462,463
530226,444,459,462
530227,448,460,462
530228,453,461,461
530229,457,461,462
530230,460,462,460
530231,461,460,462
530232,463,461,461
530233,464,461,462
530234,463,460,461
530235,458,461,458
530236,455,461,460
530237,454,462,461
530238,450,461,461
530239,446,457,461
530240,442,461,462
530241,439,462,462
530242,440,461,460
530243,442,462,462
530244,442,462,461
530245,441,461,462
530246,440,459,462
530247,443,459,461
530248,445,459,462
530249,446,459,462
530250,448,463,460
530251,449,461,462
530252,449,461,464
530253,449,460,462
530254,450,461,462
530255,447,462,462
530256,447,459,463
530257,446,459,462
530258,446,461,463
530259,445,459,462
530260,443,462,461
530261,444,460,461
530262,448,460,462
530263,448,461,462
530264,450,459,462
530265,453,462,461
530266,457,458,461
530267,459,460,462
530268,457,460,463
530269,460,462,461
530270,459,460,460
530271,456,458,462
530272,454,460,463
530273,449,460,461
530274,448,460,463
530275,448,460,462
530276,442,461,459
530277,440,460,462
530278,442,462,462
530279,442,461,461
530280,442,461,462
530281,441,461,464
530282,440,462,460
530283,439,459,463
530284,437,459,462
530285,438,458,461
530286,441,461,462
530287,445,461,462
530288,449,461,462
530289,450,462,463
530290,456,460,463
530291,458,460,462
530292,458,458,462
530293,460,461,462
530294,455,461,460
530295,456,460,461
530296,454,461,461
530297,449,461,462
530298,450,460,462
530299,448,462,461
530300,447,462,462
530301,445,460,462
530302,446,463,461
530303,447,460,460
530304,449,460,461
530305,450,460,463
530306,451,461,463
530307,453,460,462
530308,453,461,460
530309,456,460,459
530310,457,461,463
530311,457,462,462
530312,458,461,460
530313,457,461,460
530314,457,462,461
530315,453,461,461
530316,449,460,460
530317,444,462,462
530318,440,462,461
530319,436,461,461
530320,429,462,463
530321,424,460,463
530322,426,460,461
530323,425,459,462
530324,423,461,461
530325,425,460,461
530326,423,460,461
530327,425,459,462
530328,425,461,461
530329,427,461,463
530330,425,462,458
530331,426,462,460
530332,425,460,459
530333,425,460,462
530334,424,462,462
530335,424,461,462
530336,417,461,462
530337,413,457,461
530338,408,460,462
530339,405,461,459
530340,403,459,459
530341,400,461,463
530342,401,461,462
530343,401,461,461
530344,404,461,461
530345,406,459,461
530346,410,458,461
530347,415,459,462
530348,416,461,461
530349,419,462,461
530350,423,460,462
530351,425,459,461
530352,425,461,461
530353,425,461,463
530354,420,461,464
530355,420,462,462
530356,419,461,462
530357,416,457,461
530358,411,461,461
530359,407,460,461
530360,407,461,463
530361,405,459,463
530362,404,459,462
530363,406,461,462
530364,407,460,462
530365,407,460,462
530366,412,461,462
530367,413,460,463
530368,414,460,460
530369,417,459,462
530370,421,460,462
530371,422,462,461
530372,420,462,463
530373,421,460,461
530374,417,460,462
530375,416,461,461
530376,413,460,463
530377,409,461,462
530378,405,460,462
530379,399,460,462
530380,395,462,462
530381,393,459,461
530382,390,460,462
530383,387,461,463
530384,392,461,463
530385,394,459,462
530386,396,461,463
530387,402,460,462
530388,404,461,461
530389,409,461,462
530390,409,460,460
530391,411,461,463
530392,411,461,462
530393,411,460,462
530394,410,462,462
530395,406,460,461
530396,403,461,460
530397,401,459,463
530398,396,460,461
530399,392,461,462
530400,392,460,463
530401,393,461,462
530402,390,458,462
530403,387,460,461
530404,387,459,462
530405,387,462,461
530406,388,462,459
530407,391,461,464
530408,396,459,461
530409,397,459,462
530410,401,460,463
530411,405,460,463
530412,408,461,461
530413,408,459,462
530414,409,460,462
530415,409,461,461
530416,409,459,461
530417,409,462,462
530418,408,462,461
530419,406,461,461
530420,404,461,460
530421,400,458,462
530422,399,461,462
530423,397,460,463
530424,400,461,462
530425,400,457,459
530426,405,459,462
530427,408,461,462
530428,412,461,460
530429,414,461,462
530430,419,459,462
530431,421,460,462
530432,421,459,461
530433,418,463,461
530434,416,460,463
530435,412,460,462
530436,415,460,461
530437,413,460,464
530438,411,461,462
530439,413,460,463
530440,412,461,461
530441,413,462,461
530442,413,460,462
530443,416,461,462
530444,419,458,461
530445,420,462,462
530446,423,460,462
530447,426,462,462
530448,430,461,461
530449,434,461,461
530450,435,461,460
530451,440,460,463
530452,440,462,461
530453,439,462,462
530454,441,461,459
530455,441,461,459
530456,440,458,462
530457,440,461,462
530458,437,461,460
530459,435,461,462
530460,433,460,462
530461,432,460,464
530462,432,460,462
530463,431,462,461
530464,432,461,460
530465,435,461,461
530466,437,461,462
530467,439,462,462
530468,444,460,461
530469,448,460,460
530470,448,461,463
530471,451,460,463
530472,453,461,463
530473,453,461,461
530474,454,459,463
530475,453,458,461
530476,449,460,462
530477,446,461,462
530478,444,460,461
530479,440,461,461
530480,436,461,461
530481,439,460,461
530482,440,459,462
530483,442,460,461
530484,444,460,462
530485,448,460,461
530486,448,461,458
530487,455,460,463
530488,460,460,461
530489,463,460,462
530490,467,460,462
530491,470,462,462
530492,470,461,462
530493,474,462,462
530494,474,458,461
530495,472,461,462
530496,471,460,463
530497,470,460,462
530498,470,458,461
530499,463,461,462
530500,464,460,463
530501,463,461,462
530502,460,459,461
530503,459,461,462
530504,461,461,462
530505,465,460,462
530506,468,461,462
530507,471,459,462
530508,475,460,462
530509,477,461,460
530510,479,461,463
530511,483,460,463
530512,485,461,462
530513,484,461,461
530514,481,461,463
530515,481,460,462
530516,477,462,461
530517,476,459,463
530518,473,460,460
530519,468,461,462
530520,465,462,462
530521,462,461,462
530522,462,460,462
530523,462,462,462
530524,462,461,462
530525,466,459,462
530526,468,461,462
530527,470,461,461
530528,471,461,462
530529,476,462,461
530530,479,460,461
530531,480,460,463
530532,483,463,462
530533,482,461,462
530534,482,461,460
530535,484,461,462
530536,482,462,461
530537,477,457,461
530538,471,460,461
530539,469,461,462
530540,465,462,460
530541,464,460,462
530542,461,461,462
530543,461,461,462
530544,460,461,459
530545,460,462,462
530546,463,460,463
530547,465,461,460
530548,471,460,461
530549,474,460,461
530550,478,461,460
530551,483,460,462
530552,485,458,462
530553,484,461,461
530554,484,460,461
530555,482,461,464
530556,477,461,463
530557,474,461,461
530558,472,458,462
530559,465,460,461
530560,460,460,462
530561,455,461,460
530562,450,462,462
530563,449,462,461
530564,453,460,461
530565,456,460,461
530566,457,461,461
530567,460,462,461
530568,465,461,461
530569,465,461,461
530570,470,461,462
530571,471,460,462
530572,471,460,462
530573,469,460,461
530574,467,460,459
530575,464,460,463
530576,463,461,460
530577,462,460,463
530578,461,458,461
530579,461,461,461
530580,460,462,463
530581,459,460,461
530582,461,461,463
530583,460,459,462
530584,459,460,463
530585,464,459,462
530586,468,460,461
530587,470,459,461
530588,472,462,462
530589,474,461,462
530590,477,462,462
530591,481,459,463
530592,486,460,462
530593,487,460,462
530594,488,460,461
530595,489,460,461
530596,485,459,462
530597,482,459,461
530598,476,461,461
530599,468,461,461
530600,461,461,463
530601,455,461,462
530602,450,461,461
530603,447,460,462
530604,446,460,462
530605,446,461,461
530606,448,462,463
530607,451,460,462
530608,454,460,462
530609,460,460,462
530610,460,461,461
530611,466,461,460
530612,469,459,461
530613,469,462,461
530614,471,461,462
530615,467,461,461
530616,468,461,461
530617,464,459,463
530618,460,462,463
530619,459,457,463
530620,453,460,461
530621,453,461,462
530622,451,462,461
530623,449,458,463
530624,448,460,461
530625,453,461,461
530626,455,460,462
530627,457,460,462
530628,460,460,463
530629,461,460,461
530630,465,461,462
530631,465,461,459
530632,467,461,462
530633,469,462,460
530634,467,457,461
530635,467,460,461
530636,465,461,460
530637,464,460,460
530638,462,459,462
530639,458,459,463
530640,457,462,462
530641,457,463,462
530642,457,461,462
530643,458,459,460
530644,459,461,462
530645,460,461,461
530646,466,461,459
530647,471,461,462
530648,474,460,460
530649,479,461,462
530650,481,460,462
530651,482,460,462
530652,483,460,462
530653,480,459,462
530654,473,459,461
530655,469,460,463
530656,465,460,461
530657,461,461,460
530658,459,462,461
530659,455,461,463
530660,452,460,461
530661,455,462,461
530662,453,460,457
530663,457,459,460
530664,460,460,462
530665,461,459,461
530666,464,460,461
530667,467,460,462
530668,469,461,462
530669,466,462,463
530670,473,461,462
530671,471,462,462
530672,471,461,460
530673,472,458,461
530674,472,462,461
530675,471,461,460
530676,470,462,461
530677,467,462,461
530678,466,461,462
530679,463,459,461
530680,461,460,461
530681,459,459,462
530682,459,461,462
530683,463,460,462
530684,463,460,461
530685,468,459,462
530686,470,461,462
530687,471,459,462
530688,476,462,462
530689,478,460,461
530690,479,458,462
530691,478,458,461
530692,479,458,462
530693,476,458,461
530694,477,461,461
530695,473,460,461
530696,471,461,463
530697,468,461,461
530698,462,461,461
530699,459,461,461
530700,460,460,460
530701,458,460,463
530702,455,461,461
530703,456,462,462
530704,456,461,461
530705,457,460,461
530706,462,459,463
530707,462,461,461
530708,465,459,461
530709,466,461,461
530710,471,460,462
530711,473,461,460
530712,474,461,460
530713,476,460,460
530714,477,459,462
530715,477,461,461
530716,473,461,460
530717,474,461,459
530718,470,461,462
530719,467,461,462
530720,468,461,460
530721,468,460,462
530722,466,461,462
530723,465,460,462
530724,463,461,461
530725,465,461,462
530726,466,460,463
530727,468,461,462
530728,467,461,462
530729,468,461,462
530730,475,461,463
530731,477,461,461
530732,476,460,463
530733,478,461,462
530734,478,460,459
530735,475,461,462
530736,479,459,462
530737,477,460,460
530738,477,462,461
530739,475,460,462
530740,470,460,462
530741,471,461,461
530742,473,461,459
530743,473,460,459
530744,473,460,463
530745,474,460,462
530746,477,459,460
530747,478,460,461
530748,483,462,461
530749,484,461,461
530750,489,461,462
530751,491,461,460
530752,491,461,461
530753,490,460,462
530754,492,461,461
530755,493,461,462
530756,489,460,461
530757,485,461,462
530758,478,461,459
530759,476,460,462
530760,471,460,460
530761,465,460,461
530762,463,461,462
530763,461,462,461
530764,461,461,462
530765,461,461,458
530766,463,459,461
530767,465,460,459
530768,468,462,461
530769,472,461,458
530770,475,460,461
530771,482,461,462
530772,487,458,460
530773,489,460,461
530774,491,461,460
530775,491,460,463
530776,487,460,462
530777,486,460,460
530778,482,461,461
530779,478,460,460
530780,478,458,461
530781,473,461,461
530782,471,460,460
530783,467,461,462
530784,469,459,462
530785,468,458,461
530786,472,461,461
530787,472,461,461
530788,475,460,463
530789,478,462,459
530790,484,459,462
530791,487,461,464
530792,491,461,461
530793,493,461,461
530794,495,457,461
530795,491,461,462
530796,492,461,462
530797,491,460,462
530798,485,460,461
530799,482,460,462
530800,480,460,462
530801,476,461,461
530802,474,458,462
530803,469,459,462
530804,466,460,459
530805,468,462,462
530806,470,461,461
530807,471,462,462
530808,474,459,462
530809,476,459,462
530810,478,457,462
530811,479,459,463
530812,480,460,461
530813,481,459,460
530814,481,458,461
530815,477,460,461
530816,477,460,462
530817,475,461,463
530818,472,462,461
530819,467,456,460
530820,465,460,461
530821,465,460,462
530822,465,461,461
530823,466,462,461
530824,467,460,461
530825,471,460,462
530826,471,459,462
530827,475,459,461
530828,478,460,461
530829,484,458,461
530830,485,460,460
530831,489,460,461
530832,489,458,461
530833,488,458,462
530834,486,457,461
530835,485,458,462
530836,482,461,460
530837,479,459,462
530838,475,457,461
530839,474,458,461
530840,473,460,462
530841,471,461,461
530842,470,461,461
530843,470,461,461
530844,470,461,461
530845,468,458,460
530846,466,461,463
530847,468,460,462
530848,470,460,462
530849,467,460,462
530850,466,461,460
530851,469,460,459
530852,471,461,462
530853,473,459,461
530854,476,461,462
530855,481,459,463
530856,482,459,461
530857,482,460,462
530858,481,461,459
530859,480,461,462
530860,477,462,460
530861,476,461,460
530862,475,461,460
530863,473,459,462
530864,472,460,463
530865,472,459,462
530866,473,460,461
530867,472,461,461
530868,471,460,463
530869,477,462,461
530870,479,459,464
530871,483,457,461
530872,484,459,460
530873,482,459,462
530874,481,461,462
530875,476,460,463
530876,474,459,459
530881,457,461,461
530882,455,460,463
530882,457,460,463
530883,458,461,462
530884,461,461,462
530885,461,461,461
530886,466,457,462
530887,465,462,463
530888,470,461,462
530889,470,460,461
530890,465,461,460
530890,469,459,463
530891,474,462,460
530892,476,460,461
530893,474,460,460
530894,477,461,462
530895,478,458,462
530896,480,459,463
530897,480,461,462
530898,482,460,462
530899,481,461,462
530899,480,461,460
530900,479,459,461
530901,476,461,460
530902,474,461,460
530903,474,460,462
530904,468,461,461
530905,469,461,462
530906,466,460,462
530907,469,461,460
530908,471,460,460
530908,474,461,462
530909,475,461,462
530910,479,460,459
530911,479,461,462
530912,480,462,462
530913,478,461,462
530914,475,461,462
530915,474,461,461
530916,471,461,463
530917,475,459,462
530918,481,461,462
530919,484,459,462
530920,486,460,461
530921,488,461,462
530922,490,460,461
530923,487,461,459
530924,489,462,463
530925,489,460,463
530926,488,457,461
530927,487,461,461
530928,484,460,462
530929,478,460,462
530930,480,461,462
530931,477,459,462
530932,475,459,462
530933,476,461,462
530934,473,461,463
530935,474,462,460
530936,470,462,462
530937,467,457,461
530938,465,462,461
530939,462,461,462
530940,457,462,459
530941,456,461,462
530942,451,462,462
530943,446,461,461
530944,446,461,461
530945,446,461,462
530946,447,460,462
530947,448,458,463
530948,451,462,462
530949,454,460,463
530950,456,461,460
530951,458,462,460
530952,462,460,464
530953,467,461,463
530954,478,462,460
530955,489,460,461
530956,497,458,461
530957,498,458,462
530958,497,461,458
530959,496,459,462
530960,490,461,462
530961,483,459,462
530962,474,459,461
530963,461,460,461
530964,452,461,459
530965,443,460,460
530966,439,460,462
530967,438,461,460
530968,438,459,462
530969,440,461,462
530970,443,461,460
530971,449,461,462
530972,449,460,461
530973,454,461,463
530974,452,462,462
530975,452,461,461
530976,452,461,459
530977,448,461,459
530978,445,461,463
530979,443,458,461
530980,441,460,461
530981,438,461,461
530982,440,461,462
530983,442,462,462
530984,443,461,461
530985,447,460,462
530986,451,461,462
530987,453,460,461
530988,453,461,462
530989,450,461,462
530990,454,460,461
530991,447,461,462
530992,448,459,461
530993,445,457,462
530994,445,461,461
530995,447,460,462
530996,449,461,463
530997,449,461,461
530998,447,462,461
530999,448,461,460
531000,447,461,460
531001,446,462,461
531002,442,459,462
531003,440,461,462
531004,438,461,462
531005,433,461,459
531006,431,461,463
1741016721562,NEW REP,,
531007,431,460,459
531008,435,461,462
531009,441,461,460
531010,446,460,463
531011,451,462,460
531012,455,461,462
531013,465,460,463
531014,467,460,462
531015,467,460,462
531016,465,461,462
531017,461,460,463
531018,459,461,460
531019,455,459,461
531020,446,461,460
531021,442,461,462
531022,435,462,463
531023,432,463,462
531024,429,459,461
531025,428,461,463
531026,429,461,462
531027,430,461,461
531028,428,461,462
531029,431,462,460
531030,432,461,462
531031,435,460,461
531032,439,461,461
531033,439,461,460
531034,444,460,462
531035,448,461,463
531036,450,461,462
531037,452,461,461
531038,455,461,462
531039,455,461,459
531040,453,463,461
531041,452,459,463
531042,451,459,461
531043,447,461,459
531044,444,460,463
531045,438,462,460
531046,437,460,462
531047,440,461,462
531048,444,459,463
531049,447,462,461
531050,450,462,460
531051,455,461,462
531052,458,457,461
531053,457,461,460
531054,459,460,463
531055,457,459,462
531056,452,461,461
531057,446,461,460
531058,440,460,462
531059,441,459,464
531060,441,462,462
531061,440,462,463
531062,442,461,462
531063,445,460,462
531064,446,460,463
531065,449,461,461
531066,451,462,462
531067,456,461,461
531068,458,460,462
531069,463,460,461
531070,465,462,462
531071,468,461,461
531072,469,461,460
531073,471,460,462
531074,472,462,462
531075,474,461,463
531076,475,461,461
531077,477,461,463
531078,477,461,463
531079,480,461,461
531080,481,461,461
531081,484,461,461
531082,488,460,462
531083,491,461,459
531084,500,461,462
531085,504,459,458
531086,508,462,460
531087,509,461,463
531088,510,461,462
531089,508,459,461
531090,510,459,463
531091,507,461,462
531092,505,460,462
531093,501,462,462
531094,499,459,461
531095,494,461,460
531096,489,460,462
531097,487,457,462
531098,483,459,461
531099,479,462,460
531100,477,461,462
531101,476,459,463
531102,478,460,461
531103,482,459,461
531104,487,461,462
531105,490,462,461
531106,495,458,462
531107,497,461,461
531108,500,460,461
531109,494,460,462
531110,494,460,460
531111,491,461,460
531112,492,460,462
531113,491,461,461
531114,499,460,462
531115,503,459,461
531116,509,459,461
531117,514,461,462
531118,516,461,461
531119,515,461,463
531120,512,459,460
531121,507,461,461
531122,499,459,462
531123,498,459,461
531124,493,460,461
531125,488,461,462
531126,485,460,461
531127,486,462,462
531128,490,461,462
531129,491,461,460
531130,495,460,462
531131,503,460,461
531132,507,461,462
531133,512,462,462
531134,515,459,461
531135,514,461,462
531136,510,461,462
531137,505,458,462
531138,498,461,462
531139,492,459,462
531140,486,461,459
531141,479,462,462
531142,476,460,461
531143,473,460,461
531144,474,459,460
531145,475,460,461
531146,480,460,461
531147,487,461,461
531148,491,462,459
531149,496,461,462
531150,500,462,461
531151,502,461,460
531152,502,458,462
531153,502,459,461
531154,501,461,459
531155,504,462,462
531156,506,459,462
531157,507,462,462
531158,509,461,461
531159,512,462,460
531160,512,460,459
531161,511,461,462
531162,513,461,461
531163,511,461,462
531164,506,462,462
531165,501,459,462
531166,497,462,461
531167,494,460,462
531168,494,461,462
531169,494,460,461
531170,496,461,462
531171,504,461,461
531172,508,459,461
531173,512,460,459
531174,517,461,462
531175,519,462,461
531176,519,461,460
531177,520,461,463
531178,524,460,461
531179,524,460,461
531180,529,461,460
531181,531,460,462
531182,528,461,460
531183,530,459,462
531184,524,460,459
531185,518,460,463
531186,512,459,462
531187,505,462,459
531188,507,458,462
531189,505,461,462
531190,508,461,460
531191,507,461,462
531192,510,460,459
531193,508,461,460
531194,509,460,460
531195,512,460,463
531196,516,460,461
531197,515,461,461
531198,518,460,460
531199,520,460,460
531200,516,458,461
531201,517,461,461
531202,513,459,462
531203,508,461,461
531204,503,461,462
531205,502,461,464
531206,502,459,461
531207,499,461,462
531208,503,462,460
531209,505,462,460
531210,508,462,459
531211,512,460,463
531212,516,462,463
531213,513,460,459
531214,509,462,462
531215,509,459,462
531216,507,459,462
531217,502,461,461
531218,497,462,461
531219,489,460,462
531220,485,461,461
531221,479,460,461
531222,478,460,461
531223,474,460,462
531224,471,460,462
531225,472,461,461
531226,474,459,461
531227,479,461,462
531228,483,461,461
531229,483,461,463
531230,482,459,460
531231,482,460,463
531232,483,462,461
531233,484,462,458
531234,485,460,461
531235,487,460,460
531236,491,459,461
531237,493,461,461
531238,495,458,462
531239,495,460,461
531240,491,461,462
531241,489,459,460
531242,490,460,462
531243,488,460,464
531244,485,458,463
531245,486,458,462
531246,485,460,463
531247,484,460,460
531248,484,462,461
531249,485,460,462
531250,486,460,462
531251,485,462,461
531252,483,460,462
531253,480,461,462
531254,479,461,461
531255,478,459,460
531256,475,460,461
531257,472,460,462
531258,473,461,462
531259,471,462,461
531260,466,460,461
531261,463,462,462
531262,461,460,463
531263,462,459,462
531264,460,461,462
531265,463,463,461
531266,463,460,462
531267,462,460,462
531268,466,461,461
531269,470,460,462
531270,472,459,462
531271,480,460,462
531272,481,460,459
531273,486,460,461
531274,492,461,461
531275,493,460,463
531276,494,460,462
531277,498,461,459
531278,496,460,460
531279,495,461,462
531280,493,457,461
531281,487,461,463
531282,489,460,461
531283,486,460,461
531284,486,460,462
531285,485,460,462
531286,482,461,462
531287,481,460,461
531288,479,459,462
531289,481,460,462
531290,480,461,461
531291,483,461,459
531292,483,459,462
531293,489,459,463
531294,488,458,461
531295,482,461,463
531296,483,459,462
531297,477,461,460
531298,470,460,459
531299,462,460,462
531300,454,459,461
531301,446,462,462
531302,440,460,462
531303,436,460,462
531304,431,461,461
531305,431,460,463
531306,430,460,461
531307,430,462,461
531308,433,459,462
531309,437,460,457
531310,443,461,460
531311,450,461,463
531312,456,462,462
531313,457,461,462
531314,462,460,461
531315,463,459,462
531316,464,460,461
531317,466,462,462
531318,463,461,462
531319,463,461,463
531320,465,462,460
531321,462,460,464
531322,463,460,462
531323,462,460,460
531324,460,462,462
531325,457,459,462
531326,456,459,462
531327,455,459,463
531328,449,460,463
531329,450,460,461
531330,448,461,462
531331,450,460,460
531332,455,459,463
531333,458,461,463
531334,469,462,462
531335,479,461,462
531336,492,458,463
531337,493,460,459
531338,498,460,461
531339,502,458,454
531340,500,460,460
531341,504,460,462
531342,503,459,462
531343,501,461,460
531344,499,460,461
531345,498,460,462
531346,499,461,462
531347,497,461,462
531348,497,459,461
531349,499,459,462
531350,503,460,462
531351,501,461,464
531352,502,460,461
531353,497,461,461
531354,488,460,463
531355,483,462,459
531356,479,462,463
531357,478,459,463
531358,478,461,462
531359,480,460,462
531360,484,459,462
531361,487,460,462
531362,490,461,464
531363,493,461,461
531364,494,462,464
531365,495,460,462
531366,495,460,463
531367,496,461,460
531368,499,461,464
531369,498,461,463
531370,505,459,464
531371,511,462,462
531372,519,462,463
531373,526,461,462
531374,527,460,463
531375,526,461,463
531376,520,461,461
531377,512,462,463
531378,505,461,463
531379,500,460,462
531380,496,461,462
531381,493,460,462
531382,489,461,461
531383,491,459,461
531384,491,462,459
531385,496,461,462
531386,495,461,461
531387,499,462,460
531388,503,460,462
531389,505,462,463
531390,510,459,464
531391,515,461,459
531392,521,461,463
531393,526,460,461
531394,532,461,463
531395,532,461,459
531396,533,461,462
531397,534,462,462
531398,534,461,464
531399,529,460,461
531400,524,461,462
531401,519,461,461
531402,513,463,462
531403,505,464,462
531404,495,461,462
531405,489,462,463
531406,482,459,462
531407,474,460,463
531408,473,462,462
531409,479,459,462
531410,484,462,462
531411,492,462,464
531412,500,461,463
531413,506,459,463
531414,508,461,463
531415,509,461,463
531416,508,462,462
531417,506,461,462
531418,504,461,463
531419,505,462,462
531420,506,460,462
531421,507,461,458
531422,511,460,461
531423,513,460,464
531424,514,461,463
531425,512,462,463
531426,516,462,462
531427,515,462,463
531428,519,461,464
531429,520,461,462
531430,525,462,462
531431,530,461,463
531432,530,466,463
531433,537,461,462
531434,536,462,461
531435,537,461,462
531436,537,460,461
531437,537,461,463
531438,539,461,463
531439,538,462,461
531440,537,458,462
531441,537,462,462
531442,537,461,460
531443,537,460,463
531444,538,462,462
531445,536,463,459
531446,536,462,463
531447,533,459,463
531448,528,461,460
531449,524,461,462
531450,523,459,462
531451,525,461,462
531452,529,461,461
531453,531,461,463
531454,540,459,462
531455,545,461,461
531456,544,461,463
531457,545,462,459
531458,547,461,462
531459,544,459,462
531460,543,461,459
531461,538,461,464
531462,538,462,462
531463,535,462,460
531464,529,461,462
531465,526,462,463
531466,517,462,462
531467,509,461,461
531468,507,463,463
531469,505,461,462
531470,509,463,462
531471,509,460,462
531472,504,460,463
531473,498,462,460
531474,498,461,463
531475,499,459,464
531476,498,462,460
531477,501,463,463
531478,501,459,461
531479,501,461,460
531480,502,461,461
531481,502,462,464
531482,500,459,462
531483,502,462,460
531484,500,461,463
531485,502,462,462
531486,503,463,462
531487,506,461,463
531488,508,461,463
531489,513,462,463
531490,519,462,463
531491,527,463,464
531492,531,460,463
531493,535,459,464
531494,534,461,460
531495,532,460,463
531496,523,462,462
531497,513,461,463
531498,503,460,462
531499,493,461,462
531500,486,460,462
531501,478,462,461
531502,469,461,462
531503,465,462,463
531504,463,463,461
531505,467,462,460
531506,474,460,463
531507,484,462,461
531508,491,462,463
531509,495,461,461
531510,499,461,459
531511,503,460,462
531512,503,461,459
531513,505,461,463
531514,501,462,462
531515,501,460,463
531516,496,462,462
531517,493,461,464
531518,485,462,462
531519,480,462,460
531520,478,464,463
531521,472,462,462
531522,467,461,461
531523,458,460,462
531524,453,461,460
531525,448,461,463
531526,440,461,463
531527,437,462,462
531528,438,463,462
531529,437,461,463
531530,440,459,461
531531,444,462,461
531532,446,462,463
531533,447,463,458
531534,448,462,464
531535,445,462,461
531536,445,461,462
531537,442,462,461
531538,443,462,463
531539,439,462,462
531540,438,462,460
531541,433,461,461
531542,427,461,460
531543,425,462,463
531544,423,462,463
531545,423,464,463
531546,423,460,462
531547,423,462,459
531548,428,461,462
531549,424,460,459
531550,422,461,463
531551,418,459,463
531552,412,461,463
531553,406,461,462
531554,400,461,461
531555,399,462,463
531556,396,462,459
531557,393,460,462
531558,390,459,462
531559,384,460,463
531560,377,459,463
531561,374,462,462
531562,371,462,462
531563,372,459,461
531564,376,461,463
531565,382,462,463
531566,390,462,464
531567,392,462,458
531568,399,459,461
531569,403,460,464
531570,407,460,459
531571,410,461,463
531572,412,461,463
531573,416,462,463
531574,418,461,460
531575,423,461,462
531576,424,461,460
531577,424,461,462
531578,421,462,463
531579,419,459,462
531580,417,461,463
531581,415,462,463
531582,412,462,463
531583,405,462,462
531584,399,461,459
531585,397,462,459
531586,391,461,462
531587,388,460,462
531588,385,462,462
531589,387,462,462
531590,390,462,463
531591,398,460,463
531592,403,462,462
531593,409,461,460
531594,412,461,462
531595,416,462,462
531596,418,461,462
531597,417,462,463
531598,414,461,463
531599,413,462,462
531600,410,461,462
531601,408,462,461
531602,410,460,463
531603,408,462,461
531604,408,461,462
531605,406,464,463
531606,408,462,461
531607,410,462,463
531608,414,461,460
531609,414,459,462
531610,416,461,463
531611,418,462,462
531612,419,461,462
531613,419,460,462
531614,420,459,462
531615,421,461,463
531616,419,461,463
531617,414,460,462
531618,414,460,462
531619,411,460,463
531620,410,458,461
531621,406,461,460
531622,403,461,460
531623,401,461,462
531624,399,461,462
531625,399,461,462
531626,398,461,462
531627,399,461,463
531628,400,461,463
531629,403,462,460
531630,404,461,462
531631,404,462,462
531632,408,459,463
531633,406,461,463
531634,409,462,462
531635,409,459,463
531636,408,461,463
531637,400,461,463
531638,399,461,462
531639,398,462,461
531640,391,461,461
531641,390,461,461
531642,389,460,463
531643,387,460,462
531644,387,462,462
531645,387,461,462
531646,389,462,462
531647,391,462,463
531648,394,462,461
531649,397,459,463
531650,396,460,463
531651,396,460,463
531652,398,460,463
531653,397,460,462
531654,397,461,463
531655,399,459,463
531656,400,461,463
531657,400,460,462
531658,404,459,462
531659,402,463,463
531660,404,462,459
531661,403,461,463
531662,402,460,463
531663,402,462,461
531664,402,461,463
531665,403,462,461
531666,402,462,463
531667,405,463,461
531668,407,462,462
531669,407,461,463
531670,409,462,461
531671,414,459,463
531672,417,460,462
531673,420,460,463
531674,419,460,463
531675,425,459,462
531676,424,461,463
531677,423,462,463
531678,422,461,461
531679,422,461,460
531680,418,459,463
531681,415,461,461
531682,415,461,463
531683,410,461,459
531684,411,461,463
531685,412,462,462
531686,411,458,463
531687,411,460,463
531688,410,461,462
531689,411,461,462
531690,411,461,461
531691,414,461,463
531692,415,461,462
531693,415,462,461
531694,418,462,462
531695,417,461,461
531696,415,461,460
531697,416,460,460
531698,416,460,463
531699,412,460,461
531700,407,460,461
531701,405,460,463
531702,401,461,459
531703,402,462,461
531704,399,460,461
531705,400,460,462
531706,402,457,464
531707,402,461,463
531708,405,461,463
531709,408,460,462
531710,410,460,458
531711,413,461,460
531712,415,458,461
531713,418,462,461
531714,415,462,464
531715,416,461,461
531716,417,461,461
531717,415,459,462
531718,413,461,462
531719,412,463,462
531720,409,458,461
531721,410,459,463
531722,406,462,462
531723,406,460,462
531724,396,463,462
531725,397,459,463
531726,398,460,462
531727,399,460,464
531728,402,461,461
531729,408,461,462
531730,412,460,462
531731,418,458,462
531732,426,461,462
531733,428,461,462
531734,429,462,462
531735,433,460,462
531736,435,461,463
531737,435,461,460
531738,433,459,463
531739,432,460,462
531740,433,459,461
531741,429,461,461
531742,430,459,462
531743,431,462,463
531744,430,460,463
531745,429,461,463
531746,429,460,463
531747,431,459,460
531748,434,460,463
531749,436,461,462
531750,439,461,461
531751,442,461,462
531752,447,462,461
531753,452,460,461
531754,454,460,461
531755,453,460,462
531756,452,461,461
531757,446,462,461
531758,447,461,463
531759,446,462,462
531760,444,461,462
531761,440,460,462
531762,441,462,460
531763,440,460,462
531764,437,461,463
531765,440,459,459
531766,441,460,461
531767,441,462,459
531768,445,460,461
531769,451,462,462
531770,455,461,463
531771,456,462,458
531772,459,461,462
531773,463,460,462
531774,466,462,463
531775,470,460,462
531776,469,461,458
531777,474,460,461
531778,473,463,462
531779,474,459,460
531780,474,460,462
531781,473,462,463
531782,470,462,463
531783,465,462,460
531784,464,460,458
531785,463,460,461
531786,463,460,463
531787,465,462,463
531788,465,462,458
531789,470,461,462
531790,474,460,463
531791,473,461,463
531792,478,462,463
531793,481,461,462
531794,484,461,463
531795,484,460,460
531796,486,462,463
531797,488,461,461
531798,484,462,461
531799,479,460,463
531800,474,461,462
531801,468,460,462
531802,460,461,461
531803,459,462,462
531804,456,462,462
531805,460,459,460
531806,461,462,463
531807,464,461,463
531808,471,462,462
531809,482,461,461
531810,484,462,461
531811,486,460,463
531812,486,459,459
531813,487,462,463
531814,487,456,462
531815,486,461,461
531816,486,460,461
531817,489,459,463
531818,493,461,462
531819,494,461,462
531820,499,461,462
531821,500,460,462
531822,500,462,461
531823,499,461,461
531824,502,461,463
531825,498,462,462
531826,502,458,461
531827,505,462,462
531828,503,462,461
531829,509,461,461
531830,513,461,461
531831,520,459,463
531832,521,461,461
531833,522,460,459
531834,525,461,461
531835,525,458,461
531836,520,460,463
531837,518,458,462
531838,512,459,462
531839,510,461,462
531840,506,462,461
531841,505,461,462
531842,506,461,461
531843,512,463,461
531844,516,462,461
531845,517,460,462
531846,519,460,461
531847,521,461,462
531848,523,461,460
531849,528,462,461
531850,533,460,461
531851,533,464,463
531852,539,461,462
531853,540,460,461
531854,540,462,462
531855,543,462,460
531856,544,462,462
531857,543,462,464
531858,543,460,463
531859,538,461,460
531860,534,461,460
531861,530,462,462
531862,529,457,461
531863,527,461,460
531864,526,461,461
531865,524,463,463
531866,525,461,461
531867,525,462,461
531868,527,459,461
531869,529,462,462
531870,532,462,461
531871,533,458,461
531872,535,463,462
531873,532,461,462
531874,534,461,460
531875,535,462,462
531876,532,461,462
531877,530,460,462
531878,529,461,463
531879,523,458,463
531880,517,461,463
531881,509,462,458
531882,505,462,463
531883,500,461,463
531884,494,462,463
531885,496,461,462
531886,497,461,461
531887,499,461,461
531888,498,461,462
531889,501,462,462
531890,496,461,463
531891,494,461,460
531892,496,461,462
531893,495,461,462
531894,493,461,463
531895,498,461,460
531896,498,460,462
531897,500,462,462
531898,501,461,462
531899,500,461,462
531900,502,459,462
531901,497,460,462
531902,492,461,461
531903,488,461,462
531904,486,462,462
531905,479,460,462
531906,478,461,462
531907,476,462,461
531908,475,459,463
531909,477,459,464
531910,482,460,463
531911,484,461,459
531912,488,461,460
531913,490,462,461
531914,494,462,461
531915,498,461,462
531916,502,460,460
531917,503,461,462
531918,506,460,461
531919,507,462,461
531920,505,462,461
531921,503,461,461
531922,502,461,460
531923,499,462,461
531924,495,460,463
531925,491,462,460
531926,492,461,461
531927,491,461,462
531928,491,462,462
531929,494,461,461
531930,497,461,461
531931,500,460,460
531932,504,461,461
531933,505,461,460
531934,508,461,462
531935,509,462,462
531936,508,462,462
531937,507,460,462
531938,507,459,463
531939,503,462,461
531940,497,462,462
531941,494,460,462
531942,489,460,462
531943,485,460,460
531944,484,462,463
531945,482,459,461
531946,477,462,461
531947,482,460,459
531948,482,461,461
531949,484,461,462
531950,488,461,462
531951,488,462,462
531952,490,458,461
531953,492,459,462
531954,491,462,459
531955,492,462,463
531956,489,458,462
531957,485,462,462
531958,481,462,461
531959,477,461,462
531960,472,461,460
531961,469,462,461
531962,467,460,462
531963,466,461,461
531964,463,460,460
531965,462,462,461
531966,463,461,463
531967,467,461,460
531968,474,461,462
531969,477,461,461
531970,480,460,462
531971,483,462,461
531972,485,461,462
531973,491,461,462
531974,489,460,461
531975,489,462,461
531976,484,461,462
531977,480,459,461
531978,476,462,461
531979,474,461,462
531980,471,462,463
531981,471,461,462
531982,469,459,459
531983,468,457,463
531984,466,461,461
531985,467,459,462
531986,469,460,462
531987,470,462,462
531988,473,460,461
531989,476,459,461
531990,484,459,462
531991,486,462,460
531992,495,461,461
531993,501,461,463
531994,503,461,463
531995,505,459,462
531996,507,461,464
531997,509,461,461
531998,509,462,463
531999,507,458,463
532000,507,460,460
532001,502,461,460
532002,498,461,462
532003,495,462,462
532004,491,461,463
532005,488,460,463
532006,483,461,460
532007,483,461,460
532008,485,462,463
532009,488,462,461
532010,493,463,460
532011,497,461,462
532012,501,458,462
532013,504,461,461
532014,505,458,461
532015,507,460,464
532016,508,461,462
532017,507,460,462
532018,504,461,462
532019,503,458,462
532020,496,459,462
532021,494,461,463
532022,489,458,462
532023,485,459,463
532024,480,460,461
532025,474,461,462
532026,472,460,462
532027,472,461,458
532028,473,460,462
532029,473,461,461
532030,474,461,462
532031,474,458,461
532032,475,460,461
532033,475,461,463
532034,475,460,462
532035,476,461,462
532036,471,461,462
532037,467,460,462
532038,463,462,463
532039,459,460,463
532040,451,461,463
532041,447,460,463
532042,441,461,462
532043,439,461,462
532044,432,458,462
532045,426,460,463
532046,422,460,462
532047,418,460,461
532048,417,462,462
532049,418,461,461
532050,416,460,463
532051,412,459,464
532052,409,462,460
532053,407,457,462
532054,403,461,462
532055,403,458,462
532056,402,458,462
532057,403,459,464
532058,403,460,463
532059,402,462,461
532060,406,461,460
532061,407,460,462
532062,409,461,462
532063,411,461,462
532064,411,460,461
532065,410,460,459
532066,412,461,460
532067,411,461,463
532068,412,461,462
532069,417,462,459
532070,416,462,464
532071,422,459,460
532072,422,461,462
532073,424,462,463
532074,424,461,463
532075,426,459,461
532076,420,462,463
532077,419,461,460
532078,418,462,462
532079,416,461,461
532080,415,460,462
532081,411,461,460
532082,408,462,462
532083,403,460,462
532084,401,462,462
532085,397,461,462
532086,397,459,461
532087,398,459,462
532088,399,461,462
532089,399,460,462
532090,400,461,462
532091,405,464,459
532092,400,461,463
532093,400,461,462
532094,400,461,462
532095,399,462,462
532096,398,461,462
532097,396,460,463
532098,395,461,459
532099,391,461,463
532100,392,462,463
532101,386,461,461
532102,385,462,460
532103,386,462,462
532104,382,462,462
532105,383,460,462
532106,385,461,463
532107,386,461,462
532108,389,462,460
532109,390,462,462
532110,395,462,459
532111,399,461,463
532112,400,462,462
532113,400,462,462
532114,398,461,461
532115,397,461,460
532116,400,462,461
532117,397,462,461
532118,399,462,461
532119,397,462,462
532120,394,460,462
532121,391,461,463
532122,388,462,460
532123,386,462,461
532124,383,460,464
532125,384,461,458
532126,383,461,462
532127,381,461,463
532128,384,460,461
532129,386,461,461
532130,386,462,460
532131,389,462,461
532132,391,460,462
532133,393,459,463
532134,396,459,462
532135,391,461,464
532136,393,462,460
532137,391,462,463
532138,390,462,462
532139,384,461,462
532140,380,461,459
532141,376,461,460
532142,372,461,462
532143,368,461,462
532144,370,461,463
532145,370,461,462
532146,374,461,462
532147,375,461,462
532148,380,461,463
532149,382,462,459
532150,386,463,461
532151,393,462,462
532152,396,460,461
532153,400,461,461
532154,404,461,462
532155,407,461,463
532156,408,461,462
532157,409,462,461
532158,408,460,462
532159,406,462,461
532160,405,461,462
532161,401,460,462
532162,397,462,463
532163,395,462,460
532164,391,462,459
532165,389,460,463
532166,389,462,462
532167,386,461,463
532168,386,457,463
532169,388,462,461
532170,389,461,462
532171,393,459,463
532172,396,460,462
532173,399,461,462
532174,403,462,463
532175,407,460,462
532176,407,461,463
532177,410,462,462
532178,412,460,463
532179,410,460,461
532180,408,462,460
532181,408,462,463
532182,405,460,462
532183,403,462,463
532184,401,461,464
532185,396,461,458
532186,397,462,463
532187,401,461,461
532188,401,462,462
532189,406,461,463
532190,407,461,461
532191,410,461,462
532192,410,462,461
532193,411,460,462
532194,412,460,462
532195,413,460,462
532196,415,460,462
532197,417,461,461
532198,419,462,463
532199,418,458,461
532200,420,460,462
532201,417,462,461
532202,415,461,462
532203,409,461,460
532204,408,460,461
532205,405,463,461
532206,405,461,462
532207,403,461,458
532208,404,462,463
532209,407,461,461
532210,414,460,462
532211,419,461,463
532212,420,461,462
532213,427,461,461
532214,432,461,461
532215,437,460,463
532216,436,460,461
532217,434,459,461
532218,431,461,462
532219,427,462,461
532220,424,461,461
532221,422,460,462
532222,420,461,461
532223,418,460,464
532224,420,462,461
532225,421,459,462
532226,421,461,461
532227,422,461,460
532228,420,460,461
532229,424,462,463
532230,425,461,462
532231,429,461,460
532232,437,461,461
532233,434,460,462
532234,440,460,462
532235,442,460,462
532236,440,460,461
532237,444,460,462
532238,443,462,461
532239,443,461,462
532240,440,461,462
532241,438,462,463
532242,435,461,462
532243,433,460,463
532244,430,460,461
532245,428,460,460
532246,428,461,461
532247,429,459,460
532248,429,460,463
532249,434,460,462
532250,436,462,462
532251,439,461,461
532252,440,462,462
532253,442,461,462
532254,441,462,462
532255,444,461,462
532256,444,461,461
532257,442,460,462
532258,440,460,460
532259,439,461,462
532260,437,460,459
532261,436,461,460
532262,434,461,461
532263,430,462,459
532264,429,461,461
532265,426,462,462
532266,427,458,461
532267,428,460,464
532268,429,461,463
532269,430,460,462
532270,430,462,461
532271,428,462,461
532272,430,462,464
532273,431,460,461
532274,431,461,461
532275,434,459,461
532276,435,461,462
532277,437,462,459
532278,436,461,463
532279,436,460,462
532280,435,459,462
532281,436,462,461
532282,436,460,461
532283,438,461,462
532284,437,461,463
532285,439,460,463
532286,439,460,461
532287,437,460,462
532288,438,461,462
532289,439,462,461
532290,439,461,461
532291,443,461,463
532292,440,461,459
532293,440,460,461
532294,438,459,462
532295,438,461,463
532296,439,459,461
532297,440,460,463
532298,441,461,462
532299,444,462,463
532300,447,461,462
532301,446,460,459
532302,444,460,462
532303,441,460,462
532304,435,461,462
532305,428,461,465
532306,425,462,462
532307,420,460,463
532308,421,459,462
532309,422,461,461
532310,424,460,461
532311,428,460,461
532312,432,461,463
532313,434,461,462
532314,439,460,462
532315,443,459,461
532316,446,460,462
532317,446,459,462
532318,448,460,462
532319,448,461,460
532320,447,461,462
532321,442,461,463
532322,442,461,459
532323,441,462,461
532324,439,460,461
532325,436,458,461
532326,436,461,462
532327,439,461,462
532328,438,461,462
532329,438,461,463
532330,438,461,461
532331,442,461,461
532332,443,461,459
532333,445,459,462
532334,451,461,462
532335,450,463,459
532336,452,462,460
532337,452,460,462
532338,451,458,461
532339,451,461,462
532340,451,460,463
532341,447,462,462
532342,446,461,463
532343,444,459,462
532344,443,461,462
532345,442,460,461
532346,440,460,462
532347,442,461,461
532348,443,460,462
532349,443,459,462
532350,448,461,462
532351,451,460,460
532352,457,461,461
532353,463,460,461
532354,469,460,462
532355,474,460,463
532356,477,461,461
532357,478,461,462
532358,480,461,463
532359,477,458,461
532360,476,458,462
532361,468,461,463
532362,464,462,462
532363,463,461,462
532364,461,462,463
532365,462,462,460
532366,460,461,462
532367,462,462,461
532368,460,461,462
532369,460,463,461
532370,461,461,463
532371,461,461,462
532372,462,461,463
532373,464,460,463
532374,465,460,463
532375,464,461,462
532376,469,461,462
532377,470,460,462
532378,473,461,462
532379,473,462,462
532380,473,460,462
532381,469,462,462
532382,470,460,463
532383,469,462,463
532384,467,461,462
532385,467,462,463
532386,465,461,461
532387,465,461,462
532388,467,459,462
532389,467,462,461
532390,471,460,462
532391,471,461,461
532392,476,459,459
532393,479,460,462
532394,483,460,461
532395,486,459,462
532396,490,459,462
532397,488,459,462
532398,488,461,463
532399,486,461,462
532400,485,459,461
532401,484,459,463
532402,480,462,461
532403,477,462,462
532404,475,456,462
532405,474,461,462
532406,475,461,463
532407,476,461,462
532408,474,461,460
532409,478,460,463
532410,481,460,463
532411,483,460,463
532412,486,458,461
532413,489,460,463
532414,489,460,462
532415,490,460,461
532416,494,458,461
532417,494,460,462
532418,491,462,459
532419,488,460,461
532420,489,460,461
532421,486,460,463
532422,484,460,461
532423,481,461,461
532424,478,461,463
532425,477,459,461
532426,475,459,461
532427,473,459,462
532428,476,461,463
532429,479,460,462
532430,484,460,461
532431,486,462,463
532432,491,460,462
532433,493,462,463
532434,495,460,458
532435,501,462,462
532436,498,460,462
532437,499,461,460
532438,500,461,462
532439,502,457,461
532440,500,462,462
532441,494,462,462
532442,495,461,461
532443,491,461,462
532444,487,460,461
532445,482,460,462
532446,478,461,460
532447,474,461,463
532448,473,461,463
532449,474,461,461
532450,476,459,461
532451,479,459,461
532452,483,460,464
532453,488,457,461
532454,489,462,462
532455,493,460,463
532456,491,461,463
532457,492,460,461
532458,494,461,459
532459,491,459,462
532460,489,460,463
532461,486,462,461
532462,483,461,462
532463,481,460,464
532464,482,461,462
532465,476,461,463
532466,474,460,462
532467,476,461,463
532468,476,460,462
532469,477,460,462
532470,477,462,461
532471,479,457,461
532472,480,461,462
532473,482,460,461
532474,484,460,461
532475,487,459,462
532476,487,460,462
532477,489,460,461
532478,487,461,461
532479,485,461,463
532480,487,461,461
532481,484,460,461
532482,481,461,462
532483,478,459,462
532484,473,461,459
532485,473,461,461
532486,471,461,461
532487,472,462,462
532488,472,461,462
532489,474,461,462
532490,476,462,461
532491,479,462,462
532492,484,461,463
532493,487,461,464
532494,489,461,460
532495,493,461,461
532496,493,458,461
532497,490,461,462
532498,493,462,460
532499,492,461,463
532500,491,462,461
532501,489,460,463
532502,484,461,461
532503,487,461,461
532504,485,460,462
532505,486,460,463
532506,484,457,462
532507,484,460,462
532508,483,460,459
532509,484,461,463
532510,484,460,461
532511,483,459,461
532512,487,460,462
532513,489,461,460
532514,494,460,461
532515,497,462,461
532516,502,460,462
532517,498,461,461
532518,500,461,464
532519,499,460,462
532520,491,460,462
532521,488,461,457
532522,482,462,462
532523,471,459,462
532524,469,461,461
532525,465,461,462
532526,464,460,463
532527,464,460,461
532528,468,461,462
532529,471,459,462
532530,475,461,463
532531,477,458,461
532532,479,462,459
532533,485,461,462
532534,485,460,462
532535,487,458,462
532536,487,462,459
532537,488,461,462
532538,487,461,462
532539,483,461,462
532540,478,460,460
532541,477,463,462
532542,474,462,461
532543,467,461,461
532544,467,460,461
532545,464,462,463
532546,459,461,462
532547,461,460,461
532548,458,462,462
532549,461,459,461
532550,462,460,463
532551,460,461,462
532552,466,461,461
532553,468,462,461
532554,472,461,463
532555,473,461,462
532556,477,462,461
532557,478,463,461
532558,476,461,459
532559,481,461,461
532560,481,458,461
532561,480,461,462
532562,477,462,462
532563,473,461,462
532564,474,462,462
532565,470,461,459
532566,470,461,463
532567,469,461,462
532568,467,461,463
532569,470,462,462
532570,470,459,463
532571,472,461,460
532572,475,458,460
532573,477,462,462
532574,482,463,462
532575,483,460,462
532576,482,461,462
532577,485,463,462
532578,485,460,459
532579,483,461,462
532580,479,461,461
532581,477,462,463
532582,472,462,463
532583,462,461,462
532584,461,461,461
532585,457,463,461
532586,458,462,463
532587,455,461,463
532588,459,460,461
532589,461,462,461
532590,465,462,461
532591,469,460,462
532592,473,463,461
532593,477,460,462
532594,481,460,463
532595,479,461,459
532596,484,462,460
532597,482,460,462
532598,482,461,463
532599,478,460,464
532600,472,461,462
532601,467,459,463
532602,465,459,462
532603,461,460,462
532604,456,461,463
532605,457,461,462
532606,455,461,461
532607,452,462,463
532608,452,461,461
532609,455,461,462
532610,459,460,462
532611,459,461,463
532612,460,461,462
532613,463,462,463
532614,469,460,463
532615,470,462,460
532616,476,462,463
532617,480,461,461
532618,484,461,462
532619,484,461,461
532620,482,461,463
532621,482,459,463
532622,478,460,463
532623,471,462,460
532624,463,461,459
532625,460,462,462
532626,456,460,462
532627,452,462,462
532628,452,462,463
532629,453,459,462
532630,453,462,462
532631,454,460,462
532632,458,461,461
532633,464,461,460
532634,468,461,461
532635,472,462,463
532636,475,462,462
532637,475,462,462
532638,476,461,462
532639,471,462,463
532640,472,459,462
532641,466,460,463
532642,463,462,462
532643,460,461,463
532644,456,461,463
532645,451,461,462
532646,452,462,462
532647,451,460,461
532648,453,462,462
532649,454,461,463
532650,454,462,463
532651,457,462,460
532652,464,460,462
532653,467,461,462
532654,473,461,464
532655,476,460,462
532656,478,460,463
532657,483,462,462
532658,485,462,461
532659,483,462,460
532660,480,462,458
532661,480,458,460
532662,470,462,461
532663,461,462,462
532664,458,462,463
532665,456,462,462
532666,453,460,462
532667,448,461,462
532668,450,461,460
532669,450,462,462
532670,453,462,460
532671,455,461,462
532672,457,461,463
532673,462,463,462
532674,465,463,463
532675,472,461,461
532676,476,461,460
532677,479,461,461
532678,483,463,463
532679,483,461,462
532680,481,460,462
532681,482,462,462
532682,480,461,461
532683,479,461,461
532684,481,460,460
532685,478,461,462
532686,475,462,462
532687,472,460,462
532688,470,461,462
532689,470,461,460
532690,467,461,459
532691,468,462,461
532692,471,460,460
532693,476,460,462
532694,479,462,460
532695,487,461,462
532696,491,462,461
532697,498,461,462
532698,503,461,461
532699,501,463,462
532700,502,462,461
532701,496,462,463
532702,489,460,463
532703,479,459,462
532704,469,460,463
532705,460,461,458
532706,457,465,463
532707,453,462,461
532708,451,461,461
532709,447,460,462
532710,448,462,459
532711,454,461,462
532712,459,461,460
532713,466,461,461
532714,472,460,462
532715,479,459,463
532716,481,462,461
532717,486,457,461
532718,487,461,462
532719,487,461,461
532720,489,462,462
532721,485,460,461
532722,484,458,462
532723,477,460,461
532724,476,461,462
532725,476,461,461
532726,473,460,462
532727,471,460,461
532728,472,460,462
532729,466,461,463
532730,473,461,460
532731,474,462,459
532732,478,462,462
532733,479,461,462
532734,482,460,462
532735,482,459,461
532736,487,458,462
532737,487,462,461
532738,487,460,462
532739,487,461,462
532740,483,461,462
532741,482,461,461
532742,479,461,459
532743,474,461,463
532744,474,458,461
532745,474,457,462
532746,475,459,462
532747,474,461,462
532748,475,461,460
532749,475,462,462
532750,477,462,464
532751,480,460,461
532752,481,462,461
532753,487,463,459
532754,490,462,462
532755,490,459,461
532756,489,461,460
532757,491,462,461
532758,489,462,462
532759,482,461,463
532760,480,461,460
532761,475,462,463
532762,467,462,459
532763,461,461,462
532764,459,461,462
532765,457,459,461
532766,459,460,460
532767,459,462,460
532768,461,460,460
532769,462,461,461
532770,465,461,461
532771,467,458,462
532772,470,461,462
532773,473,460,462
532774,475,462,462
532775,478,458,463
532776,481,459,462
532777,485,461,463
532778,486,460,462
532779,484,460,463
532780,486,460,461
532781,486,461,461
532782,478,460,462
532783,473,461,461
532784,469,463,459
532785,465,461,460
532786,461,461,462
532787,459,461,461
532788,457,462,462
532789,458,462,460
532790,460,459,462
532791,466,460,462
532792,472,461,461
532793,475,461,463
532794,480,461,461
532795,481,461,461
532796,483,461,462
532797,485,460,462
532798,484,457,462
532799,481,459,461
532800,478,462,462
532801,480,458,462
532802,479,460,462
532803,477,459,462
532804,472,457,461
532805,470,461,462
532806,467,460,460
532807,464,460,461
532808,461,458,461
532809,458,461,462
532810,456,459,461
532811,464,459,462
532812,473,462,461
532813,481,461,462
532814,488,460,460
532815,491,461,459
532816,495,461,460
532817,497,459,462
532818,496,459,462
532819,494,456,463
1741016723374,NEW REP,,
532820,487,461,459
532821,481,460,462
532822,474,459,462
532823,470,459,461
532824,464,460,463
532825,462,457,461
532826,461,460,460
532827,464,459,461
532828,468,458,462
532829,471,462,461
532830,475,459,461
532831,481,461,459
532832,483,460,459
532833,487,459,461
532834,486,458,460
532835,484,458,462
532836,481,460,461
532837,477,459,462
532838,472,460,459
532839,470,460,461
532840,471,461,460
532841,470,461,460
532842,472,461,460
532843,475,461,462
532844,475,460,460
532845,477,460,461
532846,479,459,461
532847,479,459,462
532848,480,461,462
532849,475,460,462
532850,476,461,462
532851,471,461,463
532852,469,460,462
532853,472,462,459
532854,474,461,460
532855,482,458,461
532856,486,460,462
532857,492,461,462
532858,496,462,462
532859,497,462,463
532860,496,459,461
532861,489,461,461
532862,481,461,461
532863,470,460,462
532864,464,460,461
532865,462,459,462
532866,462,458,462
532867,463,458,462
532868,468,463,462
532869,477,461,461
532870,484,460,463
532871,486,460,463
532872,487,459,464
532873,488,458,460
532874,486,458,462
532875,486,459,462
532876,481,459,462
532877,479,460,461
532878,475,460,459
532879,469,460,462
532880,465,462,461
532881,463,461,462
532882,461,460,462
532883,461,463,461
532884,464,461,461
532885,463,461,462
532886,464,461,462
532887,468,460,460
532888,470,461,461
532889,471,460,460
532890,471,461,462
532891,468,459,463
532892,467,461,462
532893,465,460,461
532894,465,460,463
532895,467,460,461
532896,468,461,463
532897,471,458,462
532898,478,460,462
532899,482,457,460
532900,492,461,460
532901,493,460,462
532902,494,462,461
532903,489,459,463
532904,484,459,462
532905,476,461,462
532906,470,462,461
532907,464,462,461
532908,460,461,460
532909,460,461,460
532910,460,461,463
532911,461,459,462
532912,467,460,462
532913,468,459,462
532914,478,461,461
532915,487,462,462
532916,491,461,463
532917,495,460,462
532918,494,460,461
532919,489,461,463
532920,482,462,460
532921,477,461,463
532922,468,459,462
532923,462,457,463
532924,459,458,462
532925,455,462,459
532926,455,461,463
532927,457,462,462
532928,461,460,463
532929,466,462,461
532930,470,461,462
532931,475,462,462
532932,481,462,462
532933,481,459,461
532934,478,461,460
532935,479,460,462
532936,476,459,461
532937,475,460,462
532938,475,460,460
532939,470,461,460
532940,471,462,462
532941,470,458,462
532942,468,460,461
532943,463,460,463
532944,460,462,460
532945,458,460,462
532946,457,461,461
532947,455,461,460
532948,456,461,461
532949,459,461,460
532950,458,461,462
532951,457,461,461
532952,462,462,462
532953,466,461,460
532954,477,460,460
532955,487,462,463
532956,493,460,462
532957,499,461,462
532958,500,460,462
532959,498,461,462
532960,492,461,460
532961,484,461,463
532962,480,460,462
532963,473,461,462
532964,470,461,461
532965,465,461,463
532966,463,460,461
532967,463,461,462
532968,463,460,461
532969,467,460,462
532970,471,461,463
532971,474,461,461
532972,477,461,462
532973,478,461,463
532974,483,459,462
532975,485,460,461
532976,489,462,462
532977,487,465,460
532978,488,460,461
532979,485,460,461
532980,484,460,460
532981,481,457,462
532982,478,461,460
532983,474,461,463
532984,473,461,461
532985,470,461,462
532986,467,460,462
532987,467,459,462
532988,465,462,461
532989,463,460,462
532990,464,462,461
532991,467,462,462
532992,472,459,461
532993,477,461,462
532994,482,462,461
532995,489,461,462
532996,493,461,462
532997,493,461,460
532998,494,458,462
532999,491,461,460
533000,491,458,462
533001,484,460,462
533002,477,462,463
533003,467,461,463
533004,460,460,460
533005,455,460,462
533006,455,462,463
533007,458,462,462
533008,465,460,462
533009,467,460,461
533010,470,460,461
533011,472,461,461
533012,472,462,459
533013,477,461,462
533014,478,460,462
533015,480,459,462
533016,483,462,462
533017,480,460,462
533018,481,461,462
533019,479,461,460
533020,479,461,463
533021,477,462,461
533022,474,461,460
533023,472,458,461
533024,469,459,461
533025,464,460,461
533026,459,461,462
533027,461,462,462
533028,462,462,462
533029,465,461,461
533030,471,461,462
533031,477,460,462
533032,480,460,462
533033,480,460,461
533034,480,461,463
533035,480,461,461
533036,479,460,459
533037,482,460,460
533038,481,461,461
533039,482,460,462
533040,480,461,462
533041,482,462,462
533042,481,460,462
533043,483,456,464
533044,481,460,461
533045,480,460,460
533046,477,460,460
533047,476,460,464
533048,473,461,460
533049,469,461,461
533050,469,460,462
533051,469,462,463
533052,473,461,463
533053,473,461,462
533054,469,461,463
533055,471,460,461
533056,470,461,463
533057,475,460,463
533058,477,462,463
533059,478,459,463
533060,480,462,464
533061,480,460,462
533062,479,460,462
533063,476,461,463
533064,475,461,460
533065,476,461,462
533066,476,460,461
533067,477,461,460
533068,479,460,460
533069,479,460,462
533070,487,461,462
533071,491,460,463
533072,496,461,461
533073,500,461,463
533074,503,458,462
533075,507,460,462
533076,509,459,461
533077,507,460,459
533078,509,460,462
533079,505,460,463
533080,502,458,460
533081,496,460,460
533082,489,460,462
533083,483,462,461
533084,475,462,463
533085,468,462,463
533086,462,461,461
533087,454,460,461
533088,450,460,463
533089,442,460,461
533090,442,457,462
533091,439,461,462
533092,442,461,463
533093,444,462,461
533094,454,461,462
533095,462,460,462
533096,468,461,462
533097,476,461,463
533098,480,461,462
533099,480,461,462
533100,481,459,462
533101,479,459,463
533102,479,460,462
533103,479,459,460
533104,480,462,460
533105,480,461,460
533106,479,460,461
533107,479,460,460
533108,475,461,463
533109,479,462,461
533110,478,460,462
533111,479,462,461
533112,480,460,462
533113,483,462,462
533114,481,463,462
533115,478,462,462
533116,477,460,462
533117,478,459,462
533118,480,460,462
533119,477,462,461
533120,479,461,461
533121,478,458,462
533122,478,462,461
533123,479,462,458
533124,480,461,463
533125,482,462,461
533126,487,458,461
533127,491,459,462
533128,494,461,462
533129,502,461,463
533130,506,462,462
533131,511,461,462
533132,513,460,460
533133,519,461,462
533134,524,459,462
533135,530,462,463
533136,536,460,460
533137,543,461,461
533138,547,458,462
533139,549,461,463
533140,546,459,463
533141,549,458,462
533142,546,462,460
533143,547,460,462
533144,549,459,461
533145,546,461,463
533146,542,458,461
533147,539,461,461
533148,534,460,462
533149,531,460,461
533150,527,461,461
533151,525,460,461
533152,526,460,461
533153,528,461,462
533154,529,462,462
533155,528,464,462
533156,530,462,462
533157,530,461,464
533158,527,462,461
533159,525,460,462
533160,517,459,461
533161,510,457,462
533162,502,457,463
533163,496,459,461
533164,488,460,464
533165,489,462,461
533166,490,458,461
533167,494,460,461
533168,494,460,462
533169,497,460,462
533170,500,460,462
533171,504,459,461
533172,506,458,462
533173,506,461,458
533174,510,461,464
533175,506,461,462
533176,510,461,461
533177,507,461,460
533178,506,460,462
533179,501,461,461
533180,497,461,459
533181,497,459,461
533182,500,460,462
533183,501,460,461
533184,504,460,462
533185,505,460,461
533186,507,461,462
533187,511,461,461
533188,516,461,462
533189,522,461,462
533190,526,460,460
533191,535,461,462
533192,540,461,463
533193,548,461,462
533194,549,460,459
533195,553,457,461
533196,552,458,460
533197,548,459,462
533198,542,459,461
533199,536,461,460
533200,531,462,460
533201,526,460,461
533202,520,461,462
533203,512,461,463
533204,505,461,462
533205,502,461,461
533206,504,461,461
533207,507,459,462
533208,515,461,461
533209,520,460,462
533210,526,458,462
533211,529,460,463
533212,531,458,461
533213,528,460,463
533214,531,459,461
533215,529,460,462
533216,531,461,461
533217,530,461,462
533218,528,461,461
533219,528,461,462
533220,528,460,462
533221,529,459,461
533222,528,463,462
533223,531,460,461
533224,529,461,462
533225,528,462,460
533226,526,460,462
533227,525,461,463
533228,523,462,462
533229,522,461,462
533230,520,461,461
533231,520,462,461
533232,523,462,462
533233,528,462,462
533234,534,461,461
533235,541,460,462
533236,545,461,463
533237,548,459,461
533238,547,460,462
533239,547,462,461
533240,543,460,459
533241,537,462,461
533242,531,462,462
533243,519,461,459
533244,505,460,460
533245,492,462,459
533246,481,460,463
533247,477,461,461
533248,472,461,461
533249,470,461,462
533250,470,461,459
533251,473,461,460
533252,483,460,461
533253,491,460,461
533254,495,462,459
533255,501,461,460
533256,508,459,459
533257,513,461,462
533258,516,462,460
533259,518,462,462
533260,520,462,462
533261,522,460,460
533262,522,461,462
533263,520,460,460
533264,518,461,462
533265,517,461,463
533266,515,461,461
533267,510,461,461
533268,509,459,462
533269,504,460,462
533270,496,461,462
533271,487,461,460
533272,478,459,462
533273,468,461,462
533274,462,461,462
533275,461,461,461
533276,462,460,462
533277,466,459,461
533278,475,461,461
533279,479,461,462
533280,481,462,461
533281,483,462,461
533282,483,458,462
533283,482,460,459
533284,479,460,459
533285,479,461,461
533286,478,460,461
533287,475,459,462
533288,473,458,463
533289,472,462,460
533290,475,461,462
533291,476,459,459
533292,476,460,459
533293,476,461,462
533294,473,458,462
533295,467,460,461
533296,461,461,462
533297,463,460,462
533298,464,461,459
533299,464,461,461
533300,465,460,462
533301,465,462,461
533302,464,461,461
533303,462,461,460
533304,460,461,461
533305,459,462,459
533306,459,462,462
533307,458,460,461
533308,458,460,460
533309,457,461,462
533310,458,458,460
533311,457,460,462
533312,455,463,462
533313,458,460,462
533314,459,462,463
533315,462,461,460
533316,463,459,462
533317,463,459,461
533318,462,460,463
533319,462,461,462
533320,457,461,463
533321,456,462,461
533322,452,460,461
533323,447,461,460
533324,443,461,461
533325,439,459,463
533326,435,461,462
533327,429,460,461
533328,426,461,462
533329,421,461,462
533330,420,459,462
533331,417,461,461
533332,419,459,461
533333,422,459,461
533334,423,462,461
533335,424,460,459
533336,429,460,461
533337,430,459,462
533338,431,460,462
533339,428,460,460
533340,427,461,461
533341,428,460,464
533342,422,461,460
533343,420,461,462
533344,416,460,462
533345,414,461,460
533346,414,462,461
533347,412,461,463
533348,408,461,461
533349,409,461,462
533350,408,462,460
533351,410,459,462
533352,412,458,461
533353,411,462,461
533354,417,461,458
533355,419,459,462
533356,420,461,462
533357,417,459,460
533358,415,461,462
533359,413,460,462
533360,413,460,462
533361,411,461,462
533362,412,461,461
533363,410,460,459
533364,408,461,462
533365,406,462,460
533366,406,461,463
533367,404,461,461
533368,402,462,463
533369,402,461,462
533370,396,461,461
533371,401,460,462
533372,399,459,461
533373,403,463,461
533374,408,459,462
533375,414,460,459
533376,415,459,461
533377,420,462,461
533378,418,460,461
533379,419,461,461
533380,419,459,461
533381,417,461,459
533382,418,461,463
533383,415,460,462
533384,412,461,461
533385,409,461,459
533386,406,460,462
533387,403,461,461
533388,403,462,463
533389,404,460,462
533390,404,461,462
533391,402,462,463
533392,410,458,460
533393,409,461,459
533394,416,460,460
533395,416,460,462
533396,419,461,459
533397,421,458,462
533398,420,460,462
533399,421,457,460
533400,421,462,463
533401,421,461,462
533402,420,461,462
533403,418,461,462
533404,416,462,461
533405,411,460,463
533406,410,461,460
533407,408,461,459
533408,405,460,462
533409,406,460,462
533410,406,460,462
533411,406,460,461
533412,406,461,458
533413,406,459,461
533414,407,460,462
533415,407,460,461
533416,407,460,460
533417,407,461,461
533418,412,459,461
533419,412,461,462
533420,410,461,458
533421,408,460,463
533422,408,459,461
533423,403,460,461
533424,399,459,463
533425,394,460,461
533426,392,461,462
533427,390,461,461
533428,386,459,460
533429,387,461,459
533430,386,459,459
533431,389,461,461
533432,394,460,461
533433,398,460,461
533434,403,458,463
533435,407,460,460
533436,409,460,460
533437,415,463,461
533438,417,460,462
533439,419,461,463
533440,419,461,462
533441,419,460,463
533442,414,461,459
533443,411,461,461
533444,409,461,462
533445,402,461,461
533446,398,461,462
533447,396,461,463
533448,397,461,462
533449,397,460,462
533450,398,460,462
533451,395,461,462
533452,401,462,460
533453,405,459,462
533454,407,461,461
533455,415,461,461
533456,417,461,462
533457,416,461,459
533458,419,461,463
533459,419,462,461
533460,417,462,463
533461,413,458,461
533462,412,461,462
533463,413,460,462
533464,411,461,462
533465,410,460,461
533466,406,461,459
533467,407,461,461
533468,406,461,462
533469,405,461,462
533470,407,461,462
533471,412,460,462
533472,414,460,462
533473,417,459,463
533474,421,461,461
533475,421,461,459
533476,425,461,463
533477,428,462,463
533478,430,459,460
533479,431,461,462
533480,431,461,462
533481,433,461,461
533482,432,461,463
533483,431,460,463
533484,427,462,463
533485,423,460,464
533486,420,460,460
533487,419,461,463
533488,419,460,462
533489,418,462,462
533490,422,463,462
533491,425,462,461
533492,425,460,462
533493,424,459,462
533494,428,460,463
533495,430,461,461
533496,429,461,464
533497,436,461,461
533498,441,461,461
533499,446,460,461
533500,449,461,463
533501,450,461,463
533502,450,461,462
533503,449,461,462
533504,447,459,460
533505,447,459,461
533506,445,461,463
533507,441,461,459
533508,443,459,459
533509,442,460,461
533510,443,461,464
533511,446,460,462
533512,447,461,460
533513,451,459,461
533514,451,460,462
533515,457,461,462
533516,460,460,462
533517,461,459,462
533518,464,460,463
533519,462,459,462
533520,459,462,459
533521,458,459,461
533522,454,461,459
533523,453,460,463
533524,448,462,462
533525,448,457,462
533526,448,460,462
533527,447,461,462
533528,444,461,462
533529,445,458,462
533530,445,460,463
533531,444,457,461
533532,444,461,462
533533,446,460,463
533534,445,461,462
533535,448,460,463
533536,450,459,463
533537,454,460,462
533538,455,460,461
533539,456,462,461
533540,456,461,463
533541,454,460,462
533542,451,462,464
533543,448,459,463
533544,444,462,462
533545,441,462,462
533546,439,460,462
533547,437,460,463
533548,437,460,462
533549,438,460,462
533550,442,461,461
533551,447,460,462
533552,453,460,461
533553,457,461,462
533554,463,461,462
533555,470,461,462
533556,475,459,463
533557,480,462,463
533558,487,459,463
533559,487,462,460
533560,487,461,460
533561,487,461,463
533562,483,460,462
533563,478,462,461
533564,476,461,462
533565,474,460,462
533566,473,461,462
533567,473,461,461
533568,472,462,463
533569,473,460,463
533570,475,458,463
533571,479,459,462
533572,485,460,463
533573,488,460,463
533574,493,458,462
533575,500,461,461
533576,502,460,462
533577,504,460,460
533578,504,461,463
533579,504,461,460
533580,503,461,462
533581,499,462,460
533582,497,461,461
533583,495,460,462
533584,489,462,463
533585,484,462,463
533586,478,462,462
533587,475,462,463
533588,469,462,463
533589,465,461,463
533590,467,461,462
533591,466,461,461
533592,470,462,463
533593,471,460,460
533594,473,461,460
533595,477,461,460
533596,483,461,462
533597,488,460,463
533598,490,459,462
533599,492,460,462
533600,491,461,463
533601,489,458,462
533602,488,458,463
533603,487,461,463
533604,484,461,462
533605,480,459,462
533606,477,460,462
533607,475,462,463
533608,475,459,463
533609,477,461,462
533610,483,461,463
533611,488,462,462
533612,491,460,463
533613,494,461,461
533614,496,462,463
533615,499,462,463
533616,502,461,463
533617,503,458,462
533618,504,462,462
533619,501,460,460
533620,501,461,460
533621,499,460,463
533622,497,461,462
533623,493,462,461
533624,491,461,462
533625,488,461,461
533626,489,460,463
533627,487,461,463
533628,484,460,461
533629,482,458,463
533630,481,461,462
533631,480,462,460
533632,484,460,462
533633,488,460,462
533634,491,461,462
533635,493,461,463
533636,498,460,462
533637,500,460,463
533638,506,461,461
533639,508,462,463
533640,510,461,463
533641,509,460,462
533642,508,461,462
533643,506,460,462
533644,502,462,463
533645,500,461,463
533646,499,460,462
533647,495,457,462
533648,498,462,463
533649,498,462,462
533650,497,461,463
533651,499,460,462
533652,497,457,462
533653,500,460,463
533654,505,461,462
533655,506,461,463
533656,508,461,461
533657,509,461,464
533658,511,462,460
533659,515,459,462
533660,513,459,459
533661,513,461,462
533662,511,462,463
533663,508,461,462
533664,505,461,462
533665,500,462,460
533666,497,461,463
533667,493,461,461
533668,490,460,463
533669,489,462,460
533670,489,461,463
533671,486,461,459
533672,490,461,464
533673,494,462,463
533674,499,460,461
533675,506,461,463
533676,506,461,460
533677,508,461,463
533678,514,462,462
533679,515,462,460
533680,515,458,460
533681,515,462,463
533682,516,461,463
533683,513,461,461
533684,513,459,462
533685,510,461,461
533686,507,462,462
533687,505,461,461
533688,502,461,460
533689,505,459,463
533690,504,462,462
533691,504,462,460
533692,507,460,462
533693,509,460,460
533694,515,462,463
533695,518,461,463
533696,523,460,463
533697,526,461,462
533698,526,460,461
533699,527,460,461
533700,526,460,463
533701,526,461,463
533702,523,460,462
533703,521,461,463
533704,519,461,461
533705,516,462,463
533706,514,461,462
533707,509,460,460
533708,505,460,462
533709,501,460,462
533710,498,460,463
533711,498,460,463
533712,499,461,460
533713,506,460,461
533714,511,461,463
533715,516,460,462
533716,523,459,461
533717,521,459,462
533718,526,461,461
533719,527,460,462
533720,528,461,462
533721,530,462,462
533722,530,462,460
533723,528,460,464
533724,527,460,463
533725,524,460,462
533726,521,461,462
533727,518,461,461
533728,519,459,463
533729,517,461,462
533730,515,462,461
533731,513,460,462
533732,512,462,461
533733,510,461,461
533734,512,457,462
533735,512,462,461
533736,514,460,462
533737,513,461,462
533738,515,461,462
533739,513,459,463
533740,512,461,462
533741,510,459,463
533742,506,462,461
533743,501,462,460
533744,493,462,463
533745,490,461,461
533746,484,460,462
533747,477,461,462
533748,476,460,461
533749,473,460,461
533750,470,461,462
533751,469,461,463
533752,468,460,461
533753,470,457,462
533754,471,460,462
533755,472,461,462
533756,475,461,462
533757,476,459,463
533758,479,462,461
533759,478,461,462
533760,478,459,460
533761,476,461,464
533762,474,461,463
533763,472,460,464
533764,468,461,462
533765,462,461,463
533766,461,462,462
533767,458,460,463
533768,454,461,459
533769,454,462,463
533770,454,461,462
533771,457,461,463
533772,457,459,463
533773,459,461,461
533774,463,462,461
533775,464,462,461
533776,468,462,461
533777,469,463,462
533778,471,462,461
533779,470,461,461
533780,469,460,464
533781,467,460,462
533782,463,458,461
533783,459,462,461
533784,453,461,462
533785,448,461,460
533786,446,460,463
533787,438,461,462
533788,436,460,460
533789,433,461,462
533790,432,460,460
533791,433,461,461
533792,435,461,462
533793,440,460,461
533794,442,461,462
533795,445,460,460
533796,447,460,463
533797,448,460,462
533798,447,460,462
533799,452,461,462
533800,451,462,462
533801,448,461,460
533802,448,461,462
533803,449,462,462
533804,446,459,462
533805,446,460,463
533806,442,460,461
533807,439,462,461
533808,439,461,459
533809,440,460,462
533810,440,461,463
533811,442,460,463
533812,442,462,463
533813,445,462,461
533814,449,461,463
533815,451,460,461
533816,452,458,462
533817,450,462,461
533818,452,462,462
533819,451,461,462
533820,446,458,462
533821,442,461,463
533822,441,460,463
533823,436,458,461
533824,434,460,462
533825,428,460,462
533826,426,461,462
533827,421,462,462
533828,418,461,463
533829,416,463,461
533830,415,461,462
533831,412,461,461
533832,412,461,461
533833,410,460,458
533834,415,460,462
533835,414,462,463
533836,415,458,462
533837,416,462,460
533838,415,460,462
533839,413,460,464
533840,414,461,463
533841,413,462,462
533842,416,462,462
533843,414,462,460
533844,415,461,462
533845,411,461,463
533846,410,457,462
533847,408,461,462
533848,408,459,463
533849,408,461,464
533850,405,461,459
533851,407,461,462
533852,407,461,459
533853,408,461,460
533854,412,461,463
533855,413,459,462
533856,417,461,463
533857,419,461,462
533858,421,460,462
533859,423,461,461
533860,424,460,463
533861,423,462,463
533862,422,462,459
533863,421,460,462
533864,418,463,462
533865,416,460,461
533866,413,460,460
533867,412,463,463
533868,407,458,462
533869,404,461,463
533870,402,460,462
533871,398,459,461
533872,397,462,463
533873,395,461,461
533874,397,461,461
533875,401,460,462
533876,401,461,462
533877,405,461,461
533878,407,460,462
533879,407,461,463
533880,409,459,461
533881,410,460,463
533882,407,463,462
533883,405,461,462
533884,406,462,460
533885,400,460,462
533886,401,461,463
533887,400,460,462
533888,399,462,463
533889,398,459,462
533890,398,461,462
533891,398,459,463
533892,400,462,462
533893,401,460,462
533894,403,457,462
533895,402,461,463
533896,408,462,464
533897,409,459,463
533898,408,462,462
533899,408,462,459
533900,410,460,462
533901,408,461,463
533902,406,459,462
533903,402,460,462
533904,398,462,463
533905,394,462,462
533906,390,459,463
533907,385,460,462
533908,385,461,463
533909,382,462,462
533910,382,462,464
533911,379,462,460
533912,381,460,462
533913,383,461,459
533914,384,460,461
533915,388,460,462
533916,389,459,463
533917,387,461,463
533918,392,459,461
533919,392,457,462
533920,393,462,462
533921,395,460,464
533922,393,461,461
533923,387,460,462
533924,382,461,461
533925,378,458,462
533926,373,461,463
533927,374,460,462
533928,368,461,462
533929,371,460,463
533930,369,462,463
533931,368,460,459
533932,371,460,462
533933,371,461,461
533934,374,461,462
533935,376,460,462
533936,378,458,461
533937,383,460,462
533938,382,461,462
533939,386,459,461
533940,387,463,461
533941,389,461,460
533942,390,461,463
533943,388,462,461
533944,386,459,462
533945,381,461,463
533946,377,459,463
533947,373,462,462
533948,373,461,462
533949,369,461,462
533950,370,462,461
533951,369,460,460
533952,371,459,465
533953,371,462,463
533954,376,461,463
533955,379,461,462
533956,380,462,461
533957,384,462,463
533958,390,462,461
533959,388,461,462
533960,392,461,462
533961,394,461,463
533962,396,460,461
533963,395,458,461
533964,394,461,463
533965,392,462,459
533966,392,460,462
533967,393,461,462
533968,393,461,461
533969,391,460,462
533970,394,461,462
533971,397,461,463
533972,398,461,462
533973,401,461,463
533974,404,463,462
533975,407,462,462
533976,411,460,464
533977,415,461,459
533978,419,461,462
533979,425,461,460
533980,425,462,463
533981,428,460,462
533982,427,460,463
533983,428,462,463
533984,427,462,462
533985,423,462,462
533986,419,458,462
533987,418,462,462
533988,417,461,462
533989,418,462,461
533990,417,461,462
533991,417,462,463
533992,418,462,461
533993,417,462,463
533994,420,461,459
533995,424,461,462
533996,428,461,462
533997,430,458,460
533998,433,460,462
533999,436,462,462
534000,437,457,461
534001,437,463,459
534002,435,461,462
534003,437,461,463
534004,437,460,462
534005,434,463,459
534006,434,462,462
534007,433,461,461
534008,434,461,463
534009,430,462,462
534010,434,461,463
534011,437,462,462
534012,437,461,460
534013,443,460,461
534014,446,461,462
534015,447,459,462
534016,451,461,459
534017,452,460,462
534018,455,462,461
534019,457,460,463
534020,461,460,462
534021,461,462,460
534022,457,460,462
534023,461,461,462
534024,457,462,463
534025,457,461,462
534026,454,461,463
534027,453,460,462
534028,449,461,462
534029,447,460,463
534030,446,457,461
534031,445,460,463
534032,448,461,462
534033,449,461,462
534034,449,460,462
534035,455,460,461
534036,456,461,462
534037,460,460,463
534038,464,461,460
534039,469,462,462
534040,471,462,461
534041,473,461,462
534042,473,461,462
534043,469,459,463
534044,469,460,462
534045,466,459,462
534046,461,460,462
534047,458,460,460
534048,456,462,462
534049,454,461,460
534050,451,460,463
534051,455,462,463
534052,454,461,460
534053,459,461,462
534054,461,460,462
534055,464,460,461
534056,466,459,461
534057,464,461,461
534058,463,458,464
534059,458,462,463
534060,459,463,459
534061,456,461,463
534062,459,460,462
534063,460,462,462
534064,460,461,462
534065,458,462,461
534066,456,461,462
534067,455,461,462
534068,453,460,461
534069,452,461,461
534070,452,461,463
534071,454,461,463
534072,455,461,462
534073,457,460,461
534074,459,460,461
534075,460,460,459
534076,463,460,462
534077,463,461,460
534078,464,462,462
534079,467,461,462
534080,467,462,462
534081,467,462,460
534082,465,461,464
534083,466,462,463
534084,467,462,463
534085,469,461,460
534086,473,459,464
534087,472,461,461
534088,474,461,463
534089,474,461,463
534090,468,463,459
534091,468,461,461
534092,466,461,461
534093,465,462,461
534094,463,461,460
534095,463,463,463
534096,464,462,462
534097,466,460,463
534098,468,462,462
534099,468,461,463
534100,475,462,463
534101,474,460,463
534102,476,462,462
534103,477,458,461
534104,478,461,462
534105,472,462,459
534106,471,461,462
534107,465,461,462
534108,462,460,461
534109,456,461,463
534110,455,460,463
534111,456,458,462
534112,456,461,462
534113,456,461,461
534114,459,460,462
534115,462,460,462
534116,463,461,464
534117,465,461,461
534118,467,462,461
534119,471,461,463
534120,473,462,462
534121,473,459,461
534122,474,462,462
534123,474,462,459
534124,470,461,462
534125,467,461,461
534126,465,460,462
534127,461,462,461
534128,458,461,464
534129,456,461,462
534130,455,461,462
534131,456,461,462
534132,457,460,462
534133,458,461,460
534134,461,458,461
534135,463,458,461
534136,468,459,462
534137,468,462,462
534138,470,460,460
534139,474,462,460
534140,477,460,463
534141,477,462,463
534142,476,462,461
534143,476,459,462
534144,472,460,463
534145,472,459,461
534146,465,462,461
534147,466,462,461
534148,462,458,460
534149,459,461,462
534150,457,462,461
534151,455,461,461
534152,451,460,463
534153,453,462,461
534154,453,460,462
534155,454,461,461
534156,455,462,463
534157,458,461,463
534158,461,462,463
534159,459,462,460
534160,461,461,462
534161,461,461,459
534162,464,461,461
534163,465,462,461
534164,464,461,460
534165,464,459,462
534166,462,461,463
534167,461,460,462
534168,460,461,459
534169,458,460,463
534170,456,461,461
534171,456,461,462
534172,456,460,462
534173,455,462,462
534174,457,463,462
534175,458,457,463
534176,458,461,459
534177,461,461,462
534178,463,462,462
534179,466,461,461
534180,467,461,462
534181,467,460,461
534182,465,463,461
534183,463,461,462
534184,460,461,463
534185,457,459,462
534186,454,461,462
534187,451,459,461
534188,448,462,463
534189,444,461,460
534190,445,461,463
534191,443,459,463
534192,443,457,462
534193,445,462,461
534194,446,462,461
534195,447,461,459
534196,451,462,462
534197,458,460,462
534198,467,461,462
534199,473,459,462
534200,479,461,461
534201,480,460,459
534202,484,460,461
534203,483,460,462
534204,481,460,462
534205,475,459,462
534206,466,462,460
534207,458,460,462
534208,453,461,460
534209,447,462,462
534210,443,460,462
534211,442,458,461
534212,445,461,462
534213,442,461,461
534214,447,461,463
534215,448,461,461
534216,454,461,463
534217,454,460,462
534218,459,462,462
534219,463,459,461
534220,464,460,461
534221,462,462,463
534222,467,461,462
534223,468,461,460
534224,469,460,463
534225,468,462,460
534226,465,461,463
534227,465,462,463
534228,461,459,462
534229,462,462,462
534230,458,461,462
534231,459,461,463
534232,459,461,461
534233,456,462,463
534234,460,461,462
534235,461,462,461
534236,464,459,462
534237,463,461,463
534238,467,459,462
534239,468,462,462
534240,472,460,462
534241,472,461,464
534242,475,461,462
534243,474,461,460
534244,471,461,460
534245,472,461,462
534246,470,460,461
534247,468,462,462
534248,466,461,462
534249,468,461,462
534250,467,461,462
534251,467,462,462
534252,471,462,461
534253,471,459,463
534254,474,461,462
534255,474,462,459
534256,477,461,462
534257,476,459,463
534258,475,461,462
534259,474,461,458
534260,477,461,462
534261,473,460,460
534262,474,462,463
534263,468,462,462
534264,471,462,462
534265,472,460,462
534266,470,461,461
534267,471,458,462
534268,469,461,459
534269,470,462,461
534270,469,461,462
534271,471,461,462
534272,466,460,461
534273,469,461,461
534274,469,462,463
534275,468,460,461
534276,467,462,460
534277,470,461,462
534278,470,462,461
534279,472,461,460
534280,472,461,462
534281,475,461,461
534282,477,461,463
534283,475,461,462
534284,472,462,462
534285,469,462,461
534286,467,463,461
534287,464,461,460
534288,461,461,462
534289,457,463,462
534290,454,461,461
534291,454,460,463
534292,453,462,460
534293,455,461,462
534294,457,462,460
534295,460,457,461
534296,462,463,460
534297,461,460,461
534298,467,460,460
534299,470,458,461
534300,472,461,461
534301,472,461,463
534302,476,461,461
534303,476,461,462
534304,478,460,462
534305,477,462,463
534306,474,461,459
534307,474,462,463
534308,473,461,461
534309,468,459,462
534310,461,462,463
534311,464,460,460
534312,460,458,460
534313,461,461,462
534314,464,461,462
534315,465,462,462
534316,472,461,462
534317,474,462,459
534318,482,461,464
534319,487,461,462
534320,489,460,461
534321,492,461,462
534322,491,461,462
534323,488,459,462
534324,485,461,461
534325,477,460,462
534326,473,461,462
534327,467,461,462
534328,464,459,461
534329,462,460,461
534330,461,461,462
534331,463,462,461
534332,463,459,461
534333,465,460,461
534334,466,461,460
534335,470,462,464
534336,472,463,461
534337,473,461,462
534338,474,461,462
534339,475,461,462
534340,475,462,460
534341,475,461,463
534342,473,462,462
534343,474,462,461
534344,474,461,461
534345,473,461,461
534346,472,459,462
534347,470,462,462
534348,468,460,462
534349,464,460,459
534350,465,461,462
534351,464,462,462
534352,459,460,462
534353,463,461,463
534354,464,460,462
534355,463,461,461
534356,468,463,460
534357,471,460,461
534358,476,461,461
534359,478,461,462
534360,479,460,462
534361,478,460,461
534362,479,462,458
534363,482,457,461
534364,478,460,463
534365,480,457,460
534366,479,460,461
534367,478,460,459
534368,477,460,462
534369,476,459,461
534370,474,460,460
534371,475,460,461
534372,473,461,461
534373,478,462,462
534374,480,460,462
534375,480,460,463
534376,478,461,462
534377,480,461,462
534378,477,461,460
534379,476,461,462
534380,475,460,461
534381,475,461,459
534382,474,459,461
534383,474,462,462
534384,478,460,462
534385,480,461,462
534386,486,459,461
534387,489,462,463
534388,492,460,462
534389,493,460,461
534390,492,458,460
534391,492,461,461
534392,486,459,462
534393,483,461,460
534394,475,460,459
534395,465,460,462
534396,459,460,462
534397,460,459,461
534398,460,460,461
534399,460,461,462
534400,463,460,459
534401,472,462,460
534402,480,461,461
534403,485,461,459
534404,490,459,460
534405,492,460,461
534406,492,460,462
534407,491,460,459
534408,489,459,464
534409,486,461,462
534410,479,461,462
534411,472,461,461
534412,468,463,463
534413,462,460,462
1741016724968,NEW REP,,
534414,460,456,460
534415,456,462,463
534416,458,460,462
534417,458,458,461
534418,460,461,463
534419,461,461,462
534420,467,461,462
534421,473,460,463
534422,478,459,461
534423,478,461,462
534424,483,460,462
534425,485,460,463
534426,483,460,462
534427,478,460,459
534428,477,461,461
534429,477,462,462
534430,476,461,463
534431,472,459,463
534432,468,462,462
534433,469,461,461
534434,469,459,463
534435,470,461,462
534436,469,462,460
534437,469,459,462
534438,467,462,458
534439,465,461,462
534440,465,461,459
534441,465,461,461
534442,468,462,462
534443,472,462,461
534444,472,460,461
534445,475,458,461
534446,475,460,461
534447,479,462,462
534448,477,461,460
534449,474,459,463
534450,470,460,461
534451,462,461,462
534452,460,461,462
534453,457,459,461
534454,459,459,461
534455,463,461,462
534456,466,459,462
534457,468,460,462
534458,470,461,462
534459,470,461,460
534460,473,461,461
534461,474,461,462
534462,475,461,462
534463,470,461,461
534464,469,461,462
534465,466,457,461
534466,465,461,461
534467,461,460,462
534468,463,461,460
534469,456,461,461
534470,457,460,461
534471,458,461,461
534472,457,461,462
534473,459,459,461
534474,460,460,459
534475,464,461,461
534476,469,460,462
534477,472,461,462
534478,476,461,460
534479,481,459,462
534480,486,461,462
534481,485,461,462
534482,481,460,460
534483,481,461,459
534484,478,460,463
534485,476,460,462
534486,474,459,462
534487,472,461,462
534488,473,461,460
534489,475,460,462
534490,473,460,463
534491,473,458,461
534492,473,460,462
534493,469,460,463
534494,465,459,462
534495,464,460,462
534496,463,460,462
534497,462,461,462
534498,460,460,461
534499,461,458,462
534500,462,460,461
534501,463,460,460
534502,468,460,462
534503,473,461,460
534504,474,461,463
534505,470,461,461
534506,473,461,462
534507,470,461,461
534508,469,460,461
534509,468,462,462
534510,466,461,461
534511,464,459,461
534512,467,462,460
534513,469,460,463
534514,470,461,462
534515,471,458,461
534516,473,461,461
534517,474,459,461
534518,476,461,463
534519,480,457,462
534520,478,462,461
534521,475,461,462
534522,471,461,462
534523,466,461,462
534524,462,459,462
534525,459,461,462
534526,460,460,461
534527,458,460,460
534528,452,461,460
534529,455,460,462
534530,454,461,462
534531,455,460,462
534532,456,460,463
534533,459,461,463
534534,459,461,462
534535,464,460,462
534536,466,461,460
534537,470,460,461
534538,473,460,463
534539,477,461,462
534540,479,459,461
534541,483,462,462
534542,481,458,461
534543,481,461,463
534544,478,461,463
534545,473,459,461
534546,470,461,462
534547,464,461,461
534548,460,460,462
534549,459,457,463
534550,455,461,462
534551,448,461,462
534552,451,459,463
534553,452,459,462
534554,450,460,460
534555,452,461,462
534556,457,460,461
534557,458,461,461
534558,462,462,462
534559,463,460,464
534560,468,460,463
534561,474,461,462
534562,476,460,461
534563,479,459,462
534564,478,457,462
534565,480,460,461
534566,481,461,462
534567,478,460,461
534568,475,461,463
534569,474,461,461
534570,467,460,462
534571,465,463,461
534572,456,461,461
534573,452,462,462
534574,446,462,460
534575,443,461,463
534576,439,461,462
534577,438,458,462
534578,436,461,463
534579,435,460,461
534580,441,462,462
534581,444,460,462
534582,447,459,461
534583,449,460,462
534584,449,460,461
534585,450,460,462
534586,451,460,463
534587,450,462,463
534588,448,461,462
534589,446,461,461
534590,439,461,461
534591,435,460,462
534592,433,460,459
534593,428,461,463
534594,423,459,462
534595,422,461,462
534596,420,461,463
534597,424,461,461
534598,425,462,462
534599,431,462,461
534600,434,460,462
534601,437,462,462
534602,440,461,461
534603,442,462,462
534604,444,459,462
534605,444,461,463
534606,441,461,460
534607,441,460,462
534608,439,461,462
534609,438,461,461
534610,439,461,462
534611,442,458,462
534612,444,460,463
534613,447,461,462
534614,448,461,463
534615,450,461,461
534616,453,460,463
534617,451,461,462
534618,448,460,462
534619,445,461,462
534620,440,461,462
534621,439,462,462
534622,437,460,463
534623,436,459,461
534624,435,462,463
534625,434,462,463
534626,432,461,462
534627,432,460,462
534628,431,461,461
534629,432,460,462
534630,428,460,462
534631,426,462,463
534632,426,462,461
534633,423,460,462
534634,427,461,462
534635,430,461,463
534636,436,461,462
534637,438,460,459
534638,446,460,462
534639,449,460,462
534640,456,460,461
534641,464,459,461
534642,471,460,460
534643,475,462,460
534644,474,462,460
534645,467,460,459
534646,462,461,462
534647,454,461,464
534648,453,461,462
534649,450,462,461
534650,448,460,461
534651,447,460,463
534652,446,462,461
534653,450,461,462
534654,452,460,461
534655,451,461,462
534656,450,461,462
534657,449,461,462
534658,457,461,463
534659,458,461,462
534660,464,462,461
534661,469,461,463
534662,473,460,462
534663,475,462,462
534664,475,463,462
534665,477,462,462
534666,479,461,462
534667,480,462,460
534668,481,462,462
534669,479,461,459
534670,480,462,461
534671,478,461,463
534672,474,460,461
534673,468,461,461
534674,464,462,462
534675,458,461,460
534676,454,460,463
534677,454,461,459
534678,453,461,460
534679,455,462,462
534680,457,461,460
534681,458,461,461
534682,457,460,463
534683,458,460,460
534684,460,458,460
534685,459,461,463
534686,459,460,463
534687,460,460,461
534688,463,462,462
534689,464,458,463
534690,465,461,462
534691,467,461,462
534692,470,461,462
534693,477,462,464
534694,480,460,460
534695,484,461,462
534696,487,461,459
534697,485,458,461
534698,484,459,463
534699,481,459,461
534700,476,460,462
534701,473,461,461
534702,467,461,462
534703,464,461,461
534704,465,462,461
534705,467,460,462
534706,468,461,461
534707,464,462,463
534708,462,461,461
534709,460,459,461
534710,459,459,463
534711,458,461,458
534712,463,459,461
534713,467,459,462
534714,472,463,460
534715,476,460,460
534716,476,461,463
534717,482,461,460
534718,487,462,463
534719,492,460,462
534720,497,461,461
534721,499,460,462
534722,499,460,461
534723,498,460,462
534724,497,460,462
534725,499,460,462
534726,501,461,462
534727,500,462,460
534728,496,460,461
534729,491,460,462
534730,487,459,463
534731,484,460,462
534732,482,461,463
534733,482,459,461
534734,484,461,463
534735,488,461,461
534736,494,462,462
534737,502,460,461
534738,512,460,460
534739,518,461,461
534740,524,461,462
534741,530,460,460
534742,528,457,461
534743,527,459,461
534744,524,461,462
534745,524,461,462
534746,519,461,462
534747,517,460,461
534748,515,459,461
534749,511,460,462
534750,505,460,460
534751,500,461,462
534752,500,460,463
534753,496,459,461
534754,491,461,462
534755,489,460,462
534756,488,460,462
534757,489,462,462
534758,491,461,463
534759,490,460,461
534760,494,461,461
534761,497,461,463
534762,500,461,459
534763,504,461,459
534764,507,461,463
534765,514,460,461
534766,516,461,462
534767,518,460,462
534768,519,461,461
534769,525,461,460
534770,526,461,462
534771,522,460,462
534772,518,460,462
534773,514,462,460
534774,507,460,461
534775,503,459,462
534776,496,462,461
534777,491,460,462
534778,489,461,461
534779,486,461,462
534780,491,461,463
534781,494,460,463
534782,497,460,461
534783,500,461,460
534784,503,458,461
534785,504,461,459
534786,504,455,462
534787,502,459,463
534788,500,460,462
534789,496,458,462
534790,492,458,462
534791,492,461,462
534792,493,462,460
534793,496,457,462
534794,493,459,461
534795,492,460,462
534796,491,460,463
534797,495,460,463
534798,498,462,461
534799,501,458,461
534800,504,459,462
534801,507,461,462
534802,511,461,462
534803,518,461,461
534804,519,462,459
534805,522,457,461
534806,524,462,461
534807,521,461,463
534808,513,460,463
534809,512,462,462
534810,502,461,462
534811,496,461,462
534812,490,460,458
534813,489,458,462
534814,488,460,462
534815,490,460,462
534816,495,460,462
534817,500,461,462
534818,501,461,462
534819,507,462,460
534820,512,462,460
534821,515,459,461
534822,519,461,463
534823,519,460,460
534824,525,462,462
534825,524,460,463
534826,528,460,459
534827,530,460,463
534828,529,460,462
534829,527,460,461
534830,521,460,462
534831,517,462,462
534832,510,461,462
534833,504,459,460
534834,494,462,462
534835,491,461,461
534836,489,461,464
534837,489,461,462
534838,491,458,461
534839,494,460,463
534840,500,460,463
534841,507,460,463
534842,513,461,462
534843,519,462,463
534844,526,459,462
534845,529,463,463
534846,525,457,462
534847,517,461,461
534848,510,459,461
534849,501,461,460
534850,498,461,461
534851,495,460,460
534852,493,459,460
534853,494,460,462
534854,495,460,458
534855,499,462,461
534856,503,461,461
534857,508,461,461
534858,512,461,462
534859,519,460,462
534860,525,462,462
534861,526,461,462
534862,528,462,461
534863,524,462,462
534864,518,460,462
534865,515,461,463
534866,510,458,462
534867,507,461,462
534868,512,461,462
534869,514,462,462
534870,515,462,460
534871,520,461,461
534872,523,461,463
534873,525,461,463
534874,530,460,461
534875,532,461,462
534876,537,458,462
534877,542,462,462
534878,544,461,459
534879,550,457,462
534880,555,458,462
534881,559,461,463
534882,559,457,462
