Time (ms),Bicep,Shoulder,Tricep
31239,462,461,463
31240,464,462,463
31241,464,461,462
31242,465,461,463
31243,463,462,464
31244,464,462,464
31245,462,463,464
31246,461,461,463
31247,460,458,462
31248,457,458,463
31249,455,460,463
31250,457,461,461
31251,456,461,459
31252,456,461,460
31253,458,462,459
31254,459,459,461
31255,459,458,463
31256,459,459,461
31257,458,460,462
31258,459,460,462
31259,460,462,464
31260,459,462,464
31261,460,460,463
31262,462,461,463
31263,463,457,462
31264,462,458,462
31265,460,461,462
31266,461,460,462
31267,459,461,462
31268,457,460,462
31269,455,461,462
31270,455,462,460
31271,454,461,462
31272,456,460,463
31273,456,462,462
31274,459,461,462
31275,458,461,462
31276,460,460,462
31277,460,459,462
31278,459,462,463
31279,462,462,463
31280,461,462,463
31281,462,462,460
31282,462,461,463
31283,462,462,462
31284,462,463,461
31285,462,459,462
31286,460,461,461
31287,456,462,464
31288,457,461,464
31289,457,460,460
31290,456,462,464
31291,456,462,463
31292,456,461,461
31293,456,463,461
31294,456,462,461
31295,457,460,462
31296,458,463,460
31297,459,461,461
31298,460,463,460
31299,459,462,462
31300,463,462,462
31301,461,462,462
31302,459,461,461
31303,462,462,463
31304,462,459,462
31305,459,460,463
31306,460,461,461
31307,459,461,461
31308,458,462,459
31309,457,460,463
31310,457,460,462
31311,455,459,462
31312,455,459,462
31313,452,460,461
31314,454,462,463
31315,456,461,462
31316,457,461,462
31317,457,459,462
31318,458,460,460
31319,457,460,462
31320,460,462,462
31321,463,462,460
31322,462,460,463
31323,459,462,460
31324,461,459,464
31325,458,460,463
31326,460,462,462
31327,458,461,462
31328,458,463,463
31329,458,462,464
31330,456,460,461
31331,454,462,464
31332,455,461,463
31333,456,462,462
31334,456,462,462
31335,457,462,459
31336,457,462,462
31337,458,462,462
31338,460,460,462
31339,461,460,462
31340,461,461,463
31341,464,461,463
31342,462,462,462
31343,461,462,463
31344,459,461,463
31345,460,461,463
31346,460,463,462
31347,459,462,462
31348,458,461,459
31349,456,460,462
31350,455,461,462
31351,455,461,463
31352,456,462,462
31353,454,462,463
31354,453,462,461
31355,453,461,463
31356,456,460,460
31357,456,461,461
31358,459,462,462
31359,456,461,463
31360,458,462,460
31361,459,461,463
31362,462,461,462
31363,460,459,462
31364,460,462,462
31365,456,461,462
31366,456,460,463
31367,458,461,464
31368,458,461,462
31369,457,461,461
31370,455,463,461
31371,455,461,461
31372,455,462,463
31373,455,460,462
31374,455,460,463
31375,455,459,461
31376,457,463,462
31377,458,462,460
31378,458,462,462
31379,458,462,459
31380,458,460,463
31381,458,460,462
31382,462,461,462
31383,460,461,463
31384,458,462,462
31385,456,460,461
31386,458,459,461
31387,458,459,462
31390,453,459,460
31391,455,461,463
31392,456,461,463
31393,455,458,459
31394,455,461,463
31395,455,461,459
31396,456,458,462
31397,458,462,462
31397,459,462,463
31398,459,461,462
31399,460,460,461
31400,457,461,461
31401,460,461,463
31402,460,460,460
31403,460,462,463
31404,459,462,461
31404,458,461,463
31405,457,460,461
31406,456,460,462
31407,457,459,463
31408,455,461,463
31409,456,461,462
31410,453,461,460
31411,455,460,462
31412,452,461,460
31413,450,461,463
31414,455,461,462
31415,456,459,459
31416,456,459,462
31417,458,461,463
31418,457,462,461
31419,457,459,463
31420,458,458,462
31421,459,460,463
31422,458,462,462
31423,459,460,462
31424,459,461,462
31425,457,462,463
31426,457,462,463
31427,455,462,462
31428,455,461,459
31429,452,462,460
31430,454,462,462
31431,453,460,459
31432,451,463,459
31433,451,461,464
31434,447,459,461
31435,455,461,462
31436,455,460,462
31437,456,461,461
31438,456,456,462
31439,458,462,463
31440,459,462,462
31441,460,461,463
31442,460,462,463
31443,458,462,464
31444,456,462,462
31445,456,459,463
31446,455,460,463
31447,457,461,462
31448,456,460,461
31449,451,461,462
31450,452,463,462
31451,454,459,462
31452,452,462,462
31453,453,460,459
31454,451,461,459
31455,454,462,461
31456,455,461,461
31457,455,461,461
31458,456,461,461
31459,459,461,462
31460,459,460,461
31461,458,461,461
31462,459,462,462
31463,461,462,462
31464,460,461,462
31465,460,462,463
31466,457,460,463
31467,458,459,461
31468,456,458,461
31469,453,461,461
31470,453,462,462
31471,452,462,461
31472,451,461,462
31473,454,463,461
31474,454,459,461
31475,456,461,463
31476,456,459,461
31477,457,460,463
31478,457,463,460
31479,459,460,462
31480,461,462,463
31481,460,461,461
31482,458,461,462
31483,459,462,463
31484,458,462,461
31485,459,461,460
31486,459,461,462
31487,458,461,462
31488,453,461,463
31489,456,461,463
31490,455,459,462
31491,455,460,461
31492,454,462,462
31493,455,461,461
31494,455,462,462
31495,456,460,461
31496,456,462,463
31497,455,461,461
31498,457,462,461
31499,455,461,464
31500,460,460,461
31501,460,462,463
31502,460,461,462
31503,460,460,463
31504,459,461,464
31505,460,461,464
31506,458,461,462
31507,457,461,463
31508,455,461,462
31509,456,462,462
31510,455,462,462
31511,451,462,464
31512,451,461,461
31513,455,461,462
31514,452,462,463
31515,455,460,463
31516,457,461,462
31517,455,461,461
31518,456,461,463
31519,455,460,461
31520,460,462,463
31521,461,461,462
31522,461,460,461
31523,460,459,461
31524,461,460,462
31525,458,462,463
31526,458,462,463
31527,458,462,463
31528,456,460,462
31529,458,460,462
31530,459,461,462
31531,456,462,462
31532,455,461,461
31533,453,462,461
31534,456,462,461
31535,454,461,461
31536,457,461,463
31537,459,462,463
31538,460,459,461
31539,460,462,461
31540,461,460,461
31541,463,459,463
31542,460,458,462
31543,459,461,460
31544,460,462,461
31545,461,459,463
31546,460,462,462
31547,457,459,462
31548,460,461,462
31549,457,462,459
31550,456,461,462
31551,456,460,462
31552,456,463,461
31553,455,463,461
31554,455,461,460
31555,454,461,460
31556,458,459,460
31557,455,461,459
31558,456,460,462
31559,459,461,462
31560,460,462,459
31561,462,460,462
31562,461,460,462
31563,462,463,462
31564,463,460,462
31565,461,462,462
31566,460,462,459
31567,459,460,462
31568,459,460,461
31569,458,461,464
31570,457,461,462
31571,456,460,461
31572,456,462,461
31573,455,462,461
31574,456,461,460
31575,457,460,461
31576,459,461,460
31577,457,462,459
31578,459,462,462
31579,461,463,462
31580,463,462,462
31581,463,458,462
31582,461,460,463
31583,462,462,463
31584,464,461,462
31585,463,461,462
31586,461,460,462
31587,460,459,462
31588,460,458,462
31589,460,462,461
31590,458,463,462
31591,457,459,463
31592,458,460,462
31593,457,462,464
31594,458,462,462
31595,458,461,462
31596,459,462,462
31597,461,461,462
31598,458,461,463
31599,463,459,463
31600,464,461,463
31601,464,463,461
31602,464,461,461
31603,463,457,463
31604,464,461,463
31605,462,462,463
31606,459,461,461
31607,461,461,461
31608,461,461,461
31609,457,462,462
31610,459,462,462
31611,457,462,462
31612,458,460,463
31613,458,461,465
31614,459,462,463
31615,460,461,463
31616,458,462,459
31617,458,462,463
31618,462,461,461
31619,460,461,464
31620,460,460,463
31621,464,458,462
31622,461,461,462
31623,465,460,461
31624,464,460,462
31625,464,460,463
31626,461,458,462
31627,460,462,462
31628,458,461,462
31629,459,462,461
31630,460,461,463
31631,459,460,463
31632,458,462,461
31633,459,461,462
31634,459,461,462
31635,458,458,462
31636,461,461,463
31637,464,462,460
31638,460,462,463
31639,463,458,463
31640,463,464,461
31641,466,461,463
31642,468,461,463
31643,463,462,463
31644,463,461,462
31645,466,459,462
31646,463,463,461
31647,461,461,463
31648,461,460,463
31649,461,461,461
31650,462,460,463
31651,462,460,463
31652,459,458,463
31653,460,461,462
31654,459,462,462
31655,461,461,462
31656,459,462,463
31657,461,461,463
31658,459,463,462
31659,462,460,462
31660,462,462,461
31661,463,459,462
31662,464,459,462
31663,463,462,460
31664,464,462,463
31665,463,462,462
31666,463,461,463
31667,459,461,461
31668,462,462,463
31669,461,462,462
31670,460,459,463
31671,460,461,463
31672,460,461,463
31673,460,462,462
31674,461,459,460
31675,462,458,463
31676,462,460,463
31677,464,463,464
31678,463,460,462
31679,464,462,462
31680,465,462,462
31681,467,460,462
31682,466,461,463
31683,468,461,461
31684,465,461,462
31685,470,460,462
31686,470,462,461
31687,468,461,463
31688,468,458,462
31689,466,462,462
31690,467,462,464
31691,466,458,462
31692,464,462,462
31693,461,461,460
31694,464,462,462
31695,463,461,463
31696,462,462,462
31697,463,461,460
31698,465,460,461
31699,462,462,462
31700,464,461,463
31701,465,462,462
31702,464,461,460
31703,463,460,462
31704,464,461,463
31705,465,461,463
31706,464,461,462
31707,464,460,463
31708,463,459,462
31709,463,462,461
31710,462,461,462
31711,461,462,462
31712,458,460,461
31713,460,461,461
31714,460,463,463
31715,462,461,462
31716,462,461,462
31717,461,458,462
31718,463,460,462
31719,465,461,462
31720,465,462,462
31721,467,460,464
31722,462,462,463
31723,465,461,462
31724,462,462,463
31725,464,462,463
31726,464,461,462
31727,463,458,461
31728,462,461,461
31729,462,462,461
31730,462,460,461
31731,463,461,461
31732,463,459,462
31733,462,460,461
31734,462,462,460
31735,463,460,463
31736,467,459,461
31737,468,462,462
31738,470,461,461
31739,472,460,463
31740,473,460,463
31741,473,462,463
31742,472,461,461
31743,470,461,462
31744,469,461,461
31745,472,462,462
31746,470,462,462
31747,468,462,463
31748,465,458,462
31749,463,460,461
31750,461,462,460
31751,462,463,461
31752,462,461,463
31753,464,462,463
31754,464,462,462
31755,465,461,462
31756,468,457,461
31757,470,461,462
31758,471,461,464
31759,475,459,462
31760,474,462,461
31761,473,461,460
31762,472,460,463
31763,473,461,461
31764,471,461,462
31765,470,462,462
31766,468,462,461
31767,466,462,462
31768,465,461,462
31769,464,461,463
31770,461,459,460
31771,459,462,463
31772,458,461,463
31773,459,462,460
31774,459,460,460
31775,459,460,459
31776,465,461,463
31777,469,461,462
31778,468,460,459
31779,467,461,462
31780,469,462,463
31781,473,461,463
31782,473,461,462
31783,475,460,461
31784,477,460,461
31785,479,461,463
31786,481,462,460
31787,481,462,460
31788,480,461,461
31789,478,461,462
31790,475,460,462
31791,470,461,462
31792,467,462,461
31793,467,461,462
31794,468,462,462
31795,467,461,463
31796,470,459,462
31797,467,460,461
31798,470,462,461
31799,469,462,462
31800,473,463,463
31801,477,461,462
31802,482,461,463
31803,481,462,462
31804,485,461,462
31805,486,462,462
31806,488,462,463
31807,484,460,462
31808,483,461,462
31809,482,461,463
31810,479,461,462
31811,475,462,461
31812,473,462,462
31813,470,460,459
31814,470,461,462
31815,470,460,463
31816,473,458,462
31817,474,461,462
31818,480,462,464
31819,484,461,462
31820,489,460,462
31821,493,462,462
31822,495,460,463
31823,494,461,463
31824,493,461,461
31825,492,461,463
31826,490,460,462
31827,487,460,462
31828,488,462,459
31829,491,462,461
31830,496,460,462
31831,499,460,462
31832,497,459,463
31833,500,462,462
31834,498,463,459
31835,500,461,461
31836,500,462,462
31837,499,462,462
31838,497,461,462
31839,496,460,462
31840,491,460,462
31841,489,461,463
31842,487,462,461
31843,487,458,463
31844,486,460,462
31845,485,462,462
31846,482,461,462
31847,480,461,462
31848,479,462,461
31849,478,461,463
31850,477,461,462
31851,475,462,461
31852,473,462,459
31853,473,463,462
31854,476,462,462
31855,474,462,461
31856,475,460,462
31857,474,460,464
31858,469,462,460
31859,471,458,463
31860,472,461,462
31861,477,458,462
31862,482,461,462
31863,488,461,460
31864,497,460,460
31865,505,462,463
31866,511,462,462
31867,512,461,460
31868,511,460,460
31869,512,459,460
31870,506,460,462
31871,499,462,462
31872,491,459,460
31873,484,461,458
31874,484,460,461
31875,483,462,462
31876,483,461,462
31877,482,460,459
31878,481,460,461
31879,482,460,460
31880,481,457,462
31881,479,462,463
31882,480,458,460
31883,476,461,463
31884,476,461,460
31885,475,461,463
31886,477,460,461
31887,480,461,461
31888,481,459,462
31889,481,458,462
31890,481,462,462
31891,484,461,461
31892,485,461,462
31893,485,461,462
31894,481,460,459
31895,482,462,462
31896,483,461,462
31897,484,459,463
31898,490,459,461
31899,493,461,460
31900,499,461,461
31901,503,462,461
31902,505,459,461
31903,504,462,462
31904,502,463,461
31905,501,462,461
31906,493,461,459
31907,490,461,461
31908,486,462,460
31909,485,461,462
31910,486,460,462
31911,485,460,463
31912,484,461,462
31913,492,461,462
31914,492,460,462
31915,495,462,462
31916,499,458,462
31917,500,461,462
31918,502,462,460
31919,500,461,462
31920,500,460,461
31921,499,461,463
31922,499,460,461
31923,497,460,461
31924,494,458,460
31925,497,460,463
31926,499,461,461
31927,501,460,462
31928,502,461,462
31929,504,459,461
31930,503,458,462
31931,500,461,462
31932,494,461,462
31933,493,462,459
31934,493,462,463
31935,489,460,462
31936,487,458,461
31937,483,461,463
31938,484,459,461
31939,486,461,462
31940,489,462,462
31941,494,461,461
31942,496,461,461
31943,497,461,461
31944,500,462,462
31945,502,461,462
31946,501,461,459
31947,503,460,464
31948,501,462,458
31949,499,461,461
31950,493,461,462
31951,493,462,462
31952,490,462,462
31953,485,460,462
31954,479,461,463
31955,479,461,461
31956,481,461,463
31957,483,460,461
31958,485,461,464
31959,486,460,463
31960,492,462,461
31961,493,462,462
31962,496,460,461
31963,496,460,461
31964,496,461,460
31965,488,460,462
31966,486,462,463
31967,480,461,461
31968,479,461,461
31969,475,462,461
31970,475,461,464
31971,481,460,462
31972,481,458,462
31973,480,460,462
31974,485,460,462
31975,486,463,463
31976,488,462,460
31977,489,462,462
31978,487,462,461
31979,483,460,462
31980,478,460,461
31981,475,460,462
31982,475,462,462
31983,474,461,460
31984,474,459,462
31985,476,461,461
31986,476,462,461
31987,476,463,462
31988,475,460,462
31989,473,461,463
31990,469,461,461
31991,468,461,461
31992,469,459,462
31993,468,459,463
31994,470,461,462
31995,469,461,461
31996,468,463,460
31997,469,462,461
31998,473,461,462
31999,471,462,462
32000,468,461,463
32001,472,461,462
32002,474,462,463
32003,476,462,462
32004,477,459,462
32005,474,461,462
32006,470,461,462
32007,468,461,462
32008,471,463,459
32009,476,461,464
32010,475,461,462
32011,476,461,461
32012,474,461,462
32013,470,462,461
32014,468,461,463
32015,463,461,462
32016,458,461,461
32017,456,461,462
32018,457,460,461
32019,460,457,462
32020,463,462,463
32021,463,461,464
32022,467,461,463
32023,468,462,462
32024,466,463,461
32025,467,461,462
32026,464,463,460
32027,462,462,463
32028,465,461,463
32029,460,459,464
32030,455,462,462
32031,453,461,461
32032,449,460,462
32033,448,461,459
32034,446,460,462
32035,443,458,462
32036,436,460,462
32037,436,459,463
32038,435,462,462
32039,436,461,463
32040,438,461,462
32041,444,460,463
32042,448,461,461
32043,450,461,462
32044,455,461,463
32045,456,461,462
32046,455,461,462
32047,451,460,462
32048,448,461,462
32049,444,461,462
32050,440,462,461
32051,440,460,462
32052,439,462,462
32053,444,461,462
32054,445,461,462
32055,445,461,460
32056,446,463,460
32057,444,462,462
32058,440,461,463
32059,444,460,461
32060,439,463,461
32061,440,460,462
32062,438,459,463
32063,436,462,462
32064,437,460,463
32065,440,461,462
32066,442,462,464
32067,438,462,462
32068,438,462,461
32069,440,461,464
32070,440,462,463
32071,436,463,462
32072,432,462,461
32073,430,462,459
32074,428,459,463
32075,432,462,462
32076,438,461,461
32077,444,463,463
32078,447,459,463
32079,448,461,463
32080,449,461,463
32081,449,460,462
32082,444,463,462
32083,440,462,460
32084,432,461,463
32085,429,461,463
32086,426,461,463
32087,424,459,461
32088,425,461,462
32089,420,460,463
32090,427,461,462
32091,424,460,460
32092,421,461,461
32093,421,461,462
32094,421,462,461
32095,423,461,462
32096,425,459,465
32097,428,460,460
32098,432,459,459
32099,436,460,462
32100,441,459,463
32101,446,461,462
32102,452,459,462
32103,455,462,462
32104,452,463,463
32105,451,461,462
32106,443,462,463
32107,439,459,462
32108,433,461,462
32109,431,461,461
32110,426,462,463
32111,423,462,461
32112,422,462,463
32113,422,462,463
32114,425,461,463
32115,429,459,462
32116,435,463,462
32117,441,462,463
32118,445,462,463
32119,448,458,463
32120,444,462,462
32121,441,462,462
32122,442,461,463
32123,442,458,462
32124,438,461,462
32125,439,461,462
32126,438,460,462
32127,438,461,462
32128,436,459,459
32129,434,461,462
32130,435,461,461
32131,432,459,462
32132,431,461,462
32133,436,460,463
32134,439,462,462
32135,437,460,461
32136,437,462,459
32137,435,461,461
32138,433,461,462
32139,431,461,462
32140,434,460,464
32141,433,462,461
32142,433,462,459
32143,433,461,462
32144,436,461,463
32145,440,458,461
32146,442,461,463
32147,443,461,461
32148,442,462,461
32149,435,461,462
32150,428,461,461
32151,423,461,460
32152,419,461,462
32153,417,461,463
32154,416,461,461
32155,417,461,459
32156,419,461,462
32157,424,460,463
32158,430,462,462
32159,431,462,461
32160,430,461,462
32161,434,462,463
32162,435,464,462
32163,437,461,463
32164,436,462,462
32165,436,460,462
32166,432,461,461
32167,427,460,463
32168,422,460,461
32169,416,460,463
32170,414,459,460
32171,413,461,460
32172,411,461,462
32173,409,462,461
32174,412,461,462
32175,414,460,462
32176,414,462,462
32177,418,463,464
32178,423,460,461
32179,426,461,462
32180,430,461,462
32181,431,460,461
32182,435,461,463
32183,435,462,463
32184,433,462,462
32185,429,462,461
32186,423,460,461
32187,417,460,462
32188,416,462,461
32189,413,460,463
32190,412,459,461
32191,407,461,460
32192,406,461,463
32193,408,461,461
32194,410,461,462
32195,415,461,459
32196,418,461,462
32197,420,461,462
32198,422,458,462
32199,425,460,462
32200,428,461,462
32201,431,460,463
32202,434,462,462
32203,433,459,462
32204,434,461,463
32205,433,461,460
32206,433,461,462
32207,431,459,462
32208,428,463,462
32209,425,460,461
32210,418,462,459
32211,411,460,463
32212,407,462,461
32213,401,460,462
32214,397,460,461
32215,389,462,463
32216,389,460,462
32217,388,461,462
32218,391,460,462
32219,394,460,462
32220,403,462,460
32221,411,462,462
32222,415,459,463
32223,420,458,462
32224,423,458,462
32225,423,462,459
32226,425,461,463
32227,425,461,463
32228,424,461,464
32229,423,460,461
32230,424,461,463
32231,425,460,462
32232,422,460,462
32233,423,461,462
32234,418,462,464
32235,412,462,461
32236,405,461,460
32237,403,460,463
32238,399,462,461
32239,397,462,461
32240,396,459,462
32241,395,461,463
32242,395,461,462
32243,396,460,461
32244,394,461,463
32245,396,461,461
32246,399,461,464
32247,399,461,462
32248,399,461,462
32249,402,462,464
32250,402,460,463
32251,401,462,462
32252,403,461,463
32253,401,462,463
32254,404,460,461
32255,404,459,461
32256,408,461,462
32257,409,458,461
32258,409,463,460
32259,416,461,463
32260,418,461,463
32261,416,462,461
32262,418,460,462
32263,416,460,462
32264,416,463,461
32265,412,461,463
32266,407,461,462
32267,408,459,462
32268,405,461,463
32269,405,460,462
32270,406,463,462
32271,404,462,462
32272,400,461,462
32273,401,461,459
32274,398,460,462
32275,398,462,463
32276,395,461,462
32277,398,462,461
32278,400,462,461
32279,400,462,463
32280,398,460,461
32281,394,462,462
32282,394,462,464
32283,392,462,462
32284,389,459,460
32285,387,461,462
32286,387,461,462
32287,388,460,463
32288,388,461,460
32289,391,462,462
32290,391,461,462
32291,395,460,463
32292,398,459,459
32293,399,462,461
32294,401,462,462
32295,404,460,462
32296,405,462,463
32297,410,461,463
32298,417,460,462
32299,421,461,463
32300,423,460,463
32301,422,461,462
32302,427,461,463
32303,427,462,463
32304,419,461,461
32305,415,460,463
32306,408,464,462
32307,400,462,463
32308,393,461,463
32309,387,462,462
32310,382,462,463
32311,380,460,460
32312,380,464,464
32313,379,462,462
32314,381,462,463
32315,382,461,463
32316,388,462,460
32317,393,462,463
32318,399,461,462
32319,401,458,462
32320,405,462,462
32321,407,461,463
32322,408,460,462
32323,408,461,459
32324,411,462,463
32325,416,459,463
32326,419,462,461
32327,416,463,462
32328,417,460,462
32329,414,462,461
32330,414,463,461
32331,411,459,462
32332,408,461,463
32333,404,460,463
32334,403,462,462
32335,399,461,463
32336,394,462,463
32337,391,462,462
32338,388,461,463
32339,384,463,462
32340,383,462,462
32341,384,462,461
32342,391,461,461
32343,393,461,462
32344,398,461,461
32345,402,462,463
32346,401,461,460
32347,402,462,463
32348,401,461,464
32349,402,461,460
32350,398,461,462
32351,402,463,463
32352,401,459,462
32353,401,460,462
32354,400,462,461
32355,399,462,462
32356,394,459,462
32357,391,463,459
32358,392,461,461
32359,392,461,463
32360,391,461,461
32361,394,462,462
32362,398,461,463
32363,403,462,462
32364,412,460,461
32365,415,462,464
32366,416,461,462
32367,415,460,463
32368,413,460,462
32369,411,460,463
32370,411,460,462
32371,408,462,461
32372,410,462,461
32373,411,459,462
32374,413,462,458
32375,420,462,463
32376,424,461,463
32377,423,462,462
32378,428,461,459
32379,434,463,462
32380,436,461,459
32381,440,461,462
32382,439,461,459
32383,439,461,462
32384,436,461,462
32385,433,462,462
32386,427,460,464
32387,423,462,462
32388,420,461,461
32389,417,461,462
32390,418,460,463
32391,424,459,462
32392,426,462,459
32393,429,461,463
32394,428,460,461
32395,428,462,463
32396,431,459,463
32397,432,460,461
32398,437,462,464
32399,441,460,462
32400,445,460,463
32401,449,460,460
32402,454,461,461
32403,462,461,461
32404,466,461,463
32405,472,462,462
32406,467,458,461
32407,469,462,461
32408,464,461,462
32409,462,461,463
32410,456,462,461
32411,455,458,463
32412,453,462,462
32413,446,461,461
32414,441,461,461
32415,437,462,461
32416,433,461,463
32417,426,463,461
32418,427,461,464
32419,425,462,462
32420,427,460,461
32421,429,461,462
32422,429,460,462
32423,432,461,464
32424,432,461,462
32425,434,462,462
32426,436,462,464
32427,433,461,460
32428,430,461,462
32429,430,459,462
32430,429,462,463
32431,431,459,462
32432,436,460,460
32433,441,461,462
32434,441,461,461
32435,444,462,461
32436,448,461,463
32437,450,458,463
32438,455,462,462
32439,456,461,461
32440,457,460,461
32441,460,460,462
32442,458,460,458
32443,457,462,461
32444,451,459,463
32445,447,462,462
32446,440,462,462
32447,433,459,462
32448,435,464,461
32449,435,462,462
32450,433,461,460
32451,434,462,461
32452,435,460,463
32453,431,461,463
32454,434,461,460
32455,438,463,461
32456,446,460,462
32457,455,462,462
32458,461,461,462
32459,469,461,462
32460,474,458,461
32461,475,462,461
32462,479,461,461
32463,480,460,463
32464,480,461,461
32465,482,459,462
32466,477,461,462
32467,477,461,459
32468,476,462,461
32469,475,461,461
32470,473,461,462
32471,474,461,462
32472,469,461,459
32473,464,460,462
32474,454,462,461
32475,449,458,462
32476,443,460,462
32477,440,462,461
32478,445,461,463
32479,453,461,463
32480,455,461,461
32481,456,460,462
32482,457,461,461
32483,457,460,462
32484,461,462,463
32485,465,461,462
32486,468,461,463
32487,472,461,463
32488,469,459,463
32489,469,460,462
32490,471,461,462
32491,468,458,462
32492,466,462,460
32493,468,462,462
32494,463,462,462
32495,462,461,463
32496,457,460,462
32497,457,462,461
32498,457,460,462
32499,459,460,463
32500,461,462,464
32501,461,461,461
32502,465,461,462
32503,468,459,463
32504,471,460,463
32505,471,463,458
32506,474,462,463
32507,472,462,463
32508,472,463,462
32509,466,463,462
32510,459,458,463
32511,453,461,462
32512,445,462,464
32513,437,461,462
32514,433,460,461
32515,432,461,462
32516,435,461,464
32517,439,461,462
32518,446,461,462
32519,455,459,462
32520,463,461,462
32521,464,461,462
32522,470,462,461
32523,471,462,462
32524,474,459,462
32525,474,461,461
32526,474,461,460
32527,474,460,462
32528,471,461,462
32529,467,462,462
32530,460,462,462
32531,453,462,461
32532,449,458,462
32533,447,460,461
32534,449,461,464
32535,450,460,461
32536,455,461,462
32537,459,461,461
32538,463,458,461
32539,463,459,462
32540,468,461,462
32541,471,460,462
32542,472,462,461
32543,476,460,461
32544,476,462,461
32545,479,461,461
32546,477,462,461
32547,480,459,461
32548,480,461,461
32549,478,460,461
32550,474,461,460
32551,474,457,461
32552,473,461,462
32553,472,460,462
32554,470,462,462
32555,473,462,462
32556,476,461,462
32557,477,459,462
32558,478,462,461
32559,482,460,463
32560,483,462,464
32561,484,461,463
32562,486,462,461
32563,488,462,462
32564,489,461,461
32565,487,462,464
32566,486,461,459
32567,486,458,461
32568,482,460,461
32569,476,461,460
32570,474,462,461
32571,467,459,462
32572,467,461,462
32573,465,461,462
32574,463,460,461
32575,463,462,462
32576,466,462,460
32577,466,461,463
32578,467,461,461
32579,470,460,462
32580,472,461,462
32581,474,462,459
32582,476,461,462
32583,476,462,463
32584,479,460,460
32585,480,462,462
32586,479,460,462
32587,480,461,463
32588,478,461,462
32589,476,462,460
32590,473,461,461
32591,471,461,460
32592,471,459,460
32593,470,462,463
32594,467,461,464
32595,468,462,462
32596,469,461,461
32597,471,461,463
32598,471,460,462
32599,473,458,461
32600,469,462,462
32601,470,462,461
32602,475,457,462
32603,467,461,462
32604,467,460,462
32605,463,461,463
32606,462,460,461
32607,458,462,461
32608,457,460,462
32609,455,461,463
32610,453,461,460
32611,453,464,461
32612,455,461,462
32613,457,460,463
32614,459,461,462
32615,460,462,461
32616,466,462,462
32617,466,462,462
32618,472,461,462
32619,476,462,463
32620,477,462,459
32621,482,462,462
32622,485,458,462
32623,487,462,462
32624,488,461,462
32625,489,461,463
32626,487,460,462
32627,485,462,462
32628,484,461,460
32629,480,461,463
32630,477,461,463
32631,472,461,459
32632,469,461,461
32633,467,462,462
32634,465,460,462
32635,466,461,463
32636,465,461,461
32637,466,462,463
32638,466,459,462
32639,469,461,462
32640,471,463,460
32641,470,462,461
32642,473,461,462
32643,474,460,461
32644,475,460,462
32645,471,461,462
32646,471,461,463
32647,468,462,461
32648,464,463,462
32649,461,460,463
32650,455,461,462
32651,452,461,460
32652,444,461,461
32653,447,462,461
32654,445,462,462
32655,445,461,463
32656,450,461,463
32657,452,459,462
32658,456,459,463
32659,458,460,462
32660,459,460,461
32661,460,461,463
32662,466,461,462
32663,469,466,462
32664,469,461,462
32665,471,462,461
32666,475,461,462
32667,474,461,463
32668,471,461,460
32669,467,460,462
32670,466,462,462
32671,462,460,462
32672,458,461,462
32673,455,458,462
32674,454,461,462
32675,455,462,463
32676,455,461,462
32677,455,461,459
32678,458,460,461
32679,460,462,463
32680,463,461,460
32681,465,461,462
32682,467,460,461
32683,470,460,462
32684,470,461,459
32685,471,462,462
32686,470,460,463
32687,471,461,462
32688,469,462,462
32689,466,461,462
32690,461,462,462
32691,453,460,462
32692,450,461,460
32693,449,462,462
32694,448,459,463
32695,444,460,462
32696,444,461,462
32697,450,461,463
32698,453,458,463
32699,453,462,462
32700,455,459,462
32701,455,458,463
32702,456,459,461
32703,458,462,463
32704,458,460,462
32705,459,460,461
32706,460,460,463
32707,460,461,461
32708,459,459,462
32709,457,460,462
32710,457,460,462
32711,454,461,461
32712,457,461,461
32713,457,461,461
32714,455,464,460
32715,455,462,461
32716,456,461,461
32717,456,460,462
32718,457,462,459
32719,461,460,461
32720,463,461,462
32721,467,462,464
32722,467,461,463
32723,473,461,461
32724,474,462,462
32725,473,462,461
32726,474,462,459
32727,473,459,462
32728,473,461,462
32729,468,462,461
32730,467,461,462
32731,464,460,462
32732,460,459,463
32733,451,462,458
32734,447,462,461
32735,443,458,462
32736,442,461,462
32737,443,462,463
32738,449,461,463
32739,455,461,459
32740,464,462,462
32741,475,460,461
32742,483,461,460
32743,488,461,463
32744,496,460,462
32745,499,461,459
32746,500,460,461
32747,506,463,462
32748,507,461,461
32749,506,462,460
32750,502,460,461
32751,503,462,462
32752,502,461,462
32753,502,460,462
32754,503,461,462
32755,505,459,461
32756,506,459,461
32757,509,460,463
32758,510,459,462
32759,511,461,462
32760,518,462,463
32761,522,460,461
32762,529,460,461
32763,530,461,462
32764,536,460,461
32765,539,461,461
32766,542,459,461
32767,542,460,462
32768,542,462,460
32769,541,461,462
32770,540,459,461
32771,540,461,462
32772,539,461,462
32773,540,458,461
32774,540,459,461
32775,540,460,461
32776,543,461,462
32777,544,461,460
32778,548,462,463
32779,551,461,462
32780,552,459,463
32781,555,458,462
32782,557,461,462
32783,556,460,461
32784,556,460,461
32785,554,458,463
32786,553,462,463
32787,550,460,462
32788,546,461,462
32789,547,462,459
32790,545,461,461
32791,545,461,461
32792,547,461,461
32793,545,460,461
32794,548,460,461
32795,547,460,461
32796,551,462,462
32797,554,460,462
32798,557,461,462
32799,560,460,461
32800,562,459,462
32801,563,461,462
32802,564,461,461
32803,569,461,459
32804,572,461,459
32805,574,456,461
32806,575,460,461
32807,571,459,462
32808,573,462,459
32809,572,461,462
32810,574,461,459
32811,574,461,462
32812,568,461,461
32813,567,460,462
32814,565,459,463
32815,560,459,462
32816,557,461,463
32817,555,462,462
32818,556,458,462
32819,556,461,461
32820,558,460,461
32821,560,459,463
32822,557,462,463
32823,559,461,462
32824,559,460,460
32825,555,460,462
32826,556,461,461
32827,556,459,462
32828,558,460,461
32829,561,461,462
32830,559,461,460
32831,561,460,461
32832,560,460,461
32833,560,461,461
32834,558,460,460
32835,559,461,461
32836,558,462,461
32837,558,460,460
32838,558,462,461
32839,560,459,462
32840,558,461,462
32841,564,463,461
32842,564,461,460
32843,563,459,462
32844,562,460,461
32845,557,461,463
32846,555,460,461
32847,551,460,461
32848,546,457,462
32849,543,461,461
32850,538,461,461
32851,536,460,459
32852,535,461,461
32853,531,457,461
32854,530,461,462
32855,529,460,461
32856,525,462,458
32857,527,461,461
32858,527,458,460
32859,530,460,462
32860,531,461,462
32861,533,460,460
32862,536,461,462
32863,537,461,463
32864,540,460,462
32865,540,459,459
32866,542,463,463
32867,541,458,462
32868,538,460,462
32869,530,460,462
32870,527,460,460
32871,522,459,462
32872,517,460,461
32873,515,460,462
32874,522,462,461
32875,516,462,459
32876,521,461,463
32877,523,461,461
32878,528,460,462
32879,533,461,462
32880,537,461,462
32881,537,462,462
32882,538,462,461
32883,537,461,461
32884,533,461,461
32885,530,460,460
32886,525,462,463
32887,519,461,461
32888,516,462,462
32889,513,461,463
32890,516,462,463
32891,522,461,461
32892,526,461,461
32893,529,461,460
32894,532,462,462
32895,536,458,462
32896,539,458,462
32897,541,460,461
32898,545,461,462
32899,547,460,463
32900,546,460,462
32901,550,461,462
32902,553,461,462
32903,557,461,459
32904,561,461,462
32905,564,459,461
32906,565,459,463
32907,565,461,462
32908,564,461,461
32909,559,458,461
32910,555,460,462
32911,545,461,462
32912,539,461,459
32913,532,462,462
32914,523,460,461
32915,522,462,461
32916,524,458,461
32917,530,460,461
32918,539,461,460
32919,546,461,462
32920,551,463,459
32921,552,461,462
32922,552,460,461
32923,548,461,460
32924,544,457,462
32925,544,461,462
32926,543,459,462
32927,547,460,461
32928,552,460,461
32929,556,461,459
32930,559,459,460
32931,564,461,461
32932,567,458,462
32933,570,460,462
32934,571,461,462
32935,571,461,460
32936,574,461,462
32937,574,460,462
32938,575,461,461
32939,575,457,462
32940,576,459,462
32941,577,461,462
32942,571,460,462
32943,572,460,462
32944,573,461,462
32945,572,460,462
32946,572,460,462
32947,571,461,461
32948,572,459,462
32949,573,461,461
32950,572,459,461
32951,565,459,462
32952,564,459,463
32953,561,459,461
32954,559,460,462
32955,555,461,460
32956,558,459,462
32957,560,458,461
32958,563,460,462
32959,569,460,461
32960,574,460,462
32961,580,461,461
32962,582,462,462
32963,584,461,461
32964,585,462,463
32965,582,461,458
32966,584,461,461
32967,582,461,460
32968,582,461,461
32969,582,458,462
32970,582,459,461
32971,576,461,462
32972,576,460,462
32973,572,458,461
32974,569,462,461
32975,564,462,460
32976,563,462,461
32977,560,461,461
32978,561,460,462
32979,562,461,461
32980,561,459,462
32981,566,458,460
32982,569,460,461
32983,567,460,461
32984,571,461,460
32985,571,461,460
32986,572,460,459
32987,570,460,461
32988,562,461,463
32989,562,461,462
32990,558,462,461
32991,556,460,462
32992,546,461,462
32993,543,462,459
32994,541,460,460
32995,539,459,462
32996,539,461,461
32997,538,459,460
32998,539,460,462
32999,538,462,462
33000,541,461,462
33001,542,462,462
33002,547,461,461
33003,546,457,462
33004,548,459,462
33005,544,461,462
33006,546,461,461
33007,544,460,463
33008,544,460,461
33009,538,461,462
33010,534,462,461
33011,530,459,462
33012,531,461,461
33013,530,459,462
33014,529,458,463
33015,529,460,462
33016,526,461,458
33017,527,460,461
33018,529,459,460
33019,529,460,462
33020,528,461,460
33021,531,462,462
33022,532,461,461
33023,534,461,462
33024,534,462,463
33025,532,461,461
33026,532,462,462
33027,531,460,462
33028,529,461,461
33029,527,461,462
33030,525,457,462
33031,521,462,461
33032,520,458,462
33033,520,461,462
33034,517,460,460
33035,514,460,462
33036,513,462,462
33037,511,460,461
33038,509,459,461
33039,508,461,462
33040,509,461,461
33041,508,460,463
33042,506,462,462
33043,509,462,460
33044,510,458,461
33045,512,459,461
33046,507,460,462
33047,509,461,460
33048,507,461,460
33049,506,462,460
33050,504,458,462
33051,501,461,462
33052,498,460,462
33053,494,462,460
33054,493,458,462
33055,492,459,463
33056,489,460,463
33057,487,461,461
33058,483,462,463
33059,480,459,461
33060,477,460,463
33061,473,461,462
33062,473,461,460
33063,476,461,460
33064,476,462,462
33065,478,460,461
33066,476,459,461
33067,476,461,462
33068,476,461,460
33069,475,460,462
33070,475,462,462
33071,472,458,463
33072,468,461,462
33073,471,460,459
33074,468,463,460
33075,466,462,460
33076,465,458,462
33077,463,461,460
33078,463,462,462
33079,461,458,461
33080,460,462,462
33081,461,461,462
33082,460,461,462
33083,459,462,461
33084,459,459,462
33085,459,462,463
33086,460,460,460
33087,457,461,458
33088,455,461,461
33089,451,462,461
33090,450,460,461
33091,447,462,462
33092,446,461,462
33093,444,461,462
33094,441,462,460
33095,441,461,461
33096,440,462,462
33097,442,459,461
33098,444,461,461
33099,448,461,463
33100,448,461,461
33101,450,463,463
33102,450,462,462
33103,449,460,462
33104,451,461,460
33105,453,461,461
33106,451,461,461
33107,452,459,462
33108,451,459,461
33109,449,461,460
33110,447,461,460
33111,444,461,462
33112,442,461,462
33113,440,463,463
33114,434,462,461
33115,432,462,462
33116,430,460,461
33117,425,459,461
33118,424,461,462
33119,422,461,462
33120,421,461,462
33121,420,461,463
33122,421,460,461
33123,421,461,461
33124,422,461,461
33125,424,462,461
33126,424,462,462
33127,427,459,462
33128,425,462,462
33129,425,461,461
33130,422,462,464
33131,419,462,460
33132,419,461,462
33133,416,462,463
33134,416,460,461
33135,417,461,462
33136,416,461,462
33137,416,461,461
33138,414,461,460
33139,416,460,462
33140,415,461,462
33141,418,461,462
33142,415,462,459
33143,417,461,463
33144,417,461,462
33145,412,458,461
33146,410,460,461
33147,408,458,463
33148,409,460,462
33149,408,462,462
33150,405,462,462
33151,405,460,462
33152,401,461,463
33153,403,462,460
33154,403,461,461
33155,405,461,461
33156,403,458,462
33157,405,462,463
33158,401,461,462
33159,408,461,461
33160,408,460,461
33161,409,461,461
33162,412,460,461
33163,411,460,461
33164,410,460,459
33165,412,461,462
33166,408,462,464
33167,408,461,461
33168,408,460,464
33169,405,463,462
33170,403,459,461
33171,402,461,461
33172,400,461,462
33173,399,462,463
33174,398,461,460
33175,397,461,461
33176,396,461,464
33177,395,461,461
33178,393,462,462
33179,393,460,461
33180,395,458,462
33181,400,459,462
33182,402,461,461
33183,404,462,463
33184,405,460,463
33185,402,461,461
33186,401,462,462
33187,402,458,462
33188,402,461,462
33189,398,461,463
33190,399,463,464
33191,397,460,463
33192,397,462,462
33193,395,462,460
33194,394,462,462
33195,394,461,461
33196,394,462,461
33197,393,462,461
33198,396,461,459
33199,394,462,462
33200,390,460,459
33201,393,461,462
33202,393,460,461
33203,394,461,462
33204,394,461,460
33205,396,462,461
33206,395,461,462
33207,393,462,461
33208,393,461,463
33209,392,461,463
33210,394,461,462
33211,393,461,463
33212,390,458,463
33213,389,460,461
33214,388,461,462
33215,387,460,461
33216,387,462,459
33217,389,461,461
33218,389,460,462
33219,391,460,462
33220,392,462,462
33221,393,462,462
33222,395,458,460
33223,396,459,461
33224,396,460,462
33225,397,461,463
33226,397,461,463
33227,396,461,463
33228,396,462,461
33229,396,463,463
33230,397,461,462
33231,395,463,463
33232,396,462,463
33233,395,460,461
33234,398,462,463
33235,396,460,462
33236,391,462,463
33237,395,461,462
33238,395,460,462
33239,396,462,463
33240,397,461,462
33241,396,460,461
33242,396,461,461
33243,394,461,462
33244,396,458,461
33245,396,458,461
33246,395,461,462
33247,391,463,464
33248,394,461,461
33249,392,459,460
33250,390,462,459
33251,393,460,461
33252,390,462,463
33253,389,460,459
33254,386,461,462
33255,384,461,461
33256,383,460,462
33257,385,459,462
33258,383,462,462
33259,383,462,463
33260,386,460,462
33261,388,462,462
33262,389,461,463
33263,392,461,463
33264,396,462,462
33265,398,459,461
33266,400,461,462
33267,401,462,462
33268,399,461,461
33269,397,461,461
33270,395,462,462
33271,394,462,462
33272,393,461,461
33273,393,461,462
33274,391,462,461
33275,390,462,462
33276,389,461,460
33277,391,460,461
33278,391,459,462
33279,389,460,462
33280,383,460,462
33281,387,461,461
33282,385,462,462
33283,387,462,460
33284,390,462,461
33285,393,460,461
33286,393,459,462
33287,392,460,461
33288,391,462,462
33289,388,462,461
33290,390,462,458
33291,392,460,462
33292,392,461,461
33293,391,460,461
33294,392,460,462
33295,392,459,463
33296,393,460,463
33297,392,461,462
33298,394,462,463
33299,393,461,463
33300,397,460,463
33301,399,461,463
33302,402,458,462
33303,402,462,461
33304,401,462,462
33305,399,462,463
33306,398,462,463
33307,399,462,462
33308,400,461,462
33309,399,460,462
33310,396,461,462
33311,394,461,462
33312,394,460,462
33313,391,459,463
33314,387,462,463
33315,387,461,462
33316,385,462,463
33317,386,462,463
33318,387,460,461
33319,387,462,463
33320,385,462,461
33321,390,462,462
33322,393,461,463
33323,393,462,462
33324,393,462,463
33325,399,460,462
33326,399,462,462
33327,398,462,463
33328,395,461,462
33329,393,462,464
33330,393,460,462
33331,390,460,461
33332,388,461,461
33333,390,460,461
33334,388,462,463
33335,386,462,462
33336,387,460,462
33337,388,461,462
33338,390,461,462
33339,392,461,461
33340,390,461,461
33341,392,461,463
33342,391,460,462
33343,391,462,460
33344,392,462,457
33345,390,462,460
33346,389,460,462
33347,391,460,462
33348,390,462,462
33349,389,462,462
33350,391,462,461
33351,392,458,462
33352,392,462,462
33353,392,462,462
33354,390,462,462
33355,391,462,462
33356,393,462,461
33357,392,463,461
33358,391,460,460
33359,390,461,462
33360,391,461,461
33361,391,458,461
33362,395,460,462
33363,395,460,463
33364,395,459,461
33365,399,460,462
33366,399,462,461
33367,398,462,462
33368,397,461,462
33369,397,460,461
33370,395,461,463
33371,394,461,463
33372,391,462,461
33373,390,461,463
33374,386,461,461
33375,385,462,463
33376,387,463,462
33377,388,462,462
33378,389,461,461
33379,387,461,463
33380,392,460,464
33381,392,462,461
33382,393,458,464
33383,392,461,463
33384,393,461,462
33385,395,462,462
33386,393,459,460
33387,393,462,461
33388,395,461,462
33389,392,461,461
33390,393,460,461
33391,392,462,463
33392,388,462,462
33393,390,460,462
33394,391,460,460
33395,390,460,461
33396,391,460,461
33397,389,462,460
33398,391,460,463
33399,391,462,461
33400,391,461,462
33401,391,462,462
33402,391,461,463
33403,394,461,462
33404,395,461,462
33405,397,461,462
33406,399,462,461
33407,400,462,462
33408,400,461,460
33409,401,462,461
33410,400,461,459
33411,400,463,462
33412,398,462,459
33413,395,461,463
33414,393,462,461
33415,391,461,463
33416,389,461,463
33417,387,461,462
33418,393,459,462
33419,394,461,460
33420,398,459,462
33421,400,461,463
33422,403,460,462
33423,404,460,463
33424,406,460,461
33425,407,460,461
33426,406,460,463
33427,406,462,462
33428,405,462,461
33429,406,460,463
33430,400,460,463
33431,404,461,462
33432,403,457,462
33433,403,461,462
33434,405,462,462
33435,407,461,461
33436,407,458,464
33437,407,460,463
33438,407,461,462
33439,403,461,463
33440,407,460,462
33441,406,459,463
33442,408,461,463
33443,409,461,462
33444,412,460,464
33445,410,462,462
33446,413,461,463
33447,412,462,462
33448,413,463,464
33449,410,461,460
33450,411,462,463
33451,410,461,462
33452,407,461,461
33453,407,461,461
33454,405,462,461
33455,404,461,463
33456,403,462,462
33457,403,461,463
33458,404,460,463
33459,404,461,462
33460,406,461,460
33461,407,462,462
33462,409,463,462
33463,411,460,462
33464,412,460,462
33465,414,458,463
33466,416,459,461
33467,417,461,462
33468,412,462,461
33469,409,461,460
33470,407,462,462
33471,408,459,461
33472,406,460,463
33473,404,461,462
33474,404,461,461
33475,402,461,462
33476,403,460,463
33477,401,460,463
33478,403,461,460
33479,402,461,461
33480,404,460,461
33481,408,461,462
33482,406,461,462
33483,409,461,464
33484,412,461,460
33485,415,461,462
33486,415,462,460
33487,417,461,462
33488,416,462,462
33489,416,458,461
33490,414,461,460
33491,415,461,461
33492,411,462,464
33493,414,461,462
33494,413,462,459
33495,411,463,462
33496,411,462,463
33497,410,460,463
33498,409,459,463
33499,410,461,462
33500,410,460,461
33501,410,462,461
33502,416,460,461
33503,414,460,462
33504,413,460,463
33505,416,461,463
33506,413,461,462
33507,414,461,460
33508,417,462,462
33509,418,463,463
33510,417,463,462
33511,418,461,461
33512,418,462,463
33513,418,462,462
33514,419,461,461
33515,421,458,463
33516,420,462,461
33517,421,461,461
33518,422,462,462
33519,424,461,463
33520,424,460,462
33521,422,460,462
33522,421,462,462
33523,425,459,460
33524,422,462,462
33525,420,462,461
33526,419,463,462
33527,420,459,463
33528,418,461,460
33529,415,460,463
33530,415,458,462
33531,414,459,461
33532,414,462,462
33533,412,462,461
33534,409,459,461
33535,411,460,463
33536,410,461,462
33537,410,462,462
33538,410,460,460
33539,412,460,463
33540,415,462,463
33541,416,459,461
33542,418,462,463
33543,421,461,461
33544,424,462,461
33545,424,461,463
33546,424,461,461
33547,425,461,462
33548,426,462,461
33549,422,462,462
33550,423,462,462
33551,419,460,463
33552,418,462,462
33553,419,460,461
33554,417,461,462
33555,416,462,462
33556,414,462,462
33557,414,458,462
33558,416,462,461
33559,415,462,463
33560,416,461,463
33561,416,462,461
33562,418,460,462
33563,417,459,462
33564,419,461,462
33565,421,462,463
33566,422,460,463
33567,421,462,460
33568,424,461,460
33569,426,461,462
33570,427,461,463
33571,428,459,462
33572,427,458,463
33573,428,460,462
33574,430,460,461
33575,431,461,462
33576,432,461,462
33577,431,460,461
33578,431,460,461
33579,429,460,462
33580,429,463,462
33581,430,462,463
33582,430,461,463
33583,431,460,462
33584,432,461,461
33585,436,461,460
33586,436,463,462
33587,437,464,463
33588,438,461,463
33589,437,463,461
33590,438,462,463
33591,436,461,463
33592,431,463,462
33593,424,461,461
33594,421,462,462
33595,420,461,462
33596,420,460,463
33597,422,459,462
33598,429,460,461
33599,432,462,462
33600,438,462,462
33601,439,461,464
33602,445,461,462
33603,445,462,462
33604,450,461,464
33605,450,462,462
33606,448,462,462
33607,444,462,462
33608,437,461,462
33609,433,460,461
33610,428,462,462
33611,431,460,463
33612,428,458,462
33613,431,461,462
33614,430,462,463
33615,430,462,461
33616,430,461,462
33617,429,463,462
33618,434,461,462
33619,433,462,463
33620,434,462,463
33621,433,463,462
33622,433,460,462
33623,433,460,463
33624,435,462,462
33625,438,461,462
33626,441,462,462
33627,444,461,459
33628,448,462,461
33629,451,461,463
33630,452,462,461
33631,455,461,462
33632,455,460,462
33633,454,461,461
33634,455,461,463
33635,456,462,463
33636,455,461,462
33637,455,461,461
33638,454,462,461
33639,452,461,462
33640,452,462,460
33641,453,461,460
33642,455,463,461
33643,455,466,462
33644,451,461,463
33645,449,461,461
33646,448,461,461
33647,447,460,462
33648,448,460,461
33649,450,461,462
33650,447,460,461
33651,449,460,462
33652,450,461,460
33653,450,461,462
33654,451,462,462
33655,452,461,463
33656,447,462,461
33657,452,463,463
33658,456,462,463
33659,457,459,462
33660,455,461,462
33661,459,460,462
33662,459,462,460
33663,461,462,462
33664,460,463,462
33665,460,461,461
33666,461,462,461
33667,462,462,462
33668,464,461,462
33669,466,461,460
33670,468,461,462
33671,470,460,462
33672,473,460,462
33673,474,460,463
33674,470,460,462
33675,472,462,463
33676,470,462,461
33677,469,457,461
33678,468,463,461
33679,468,462,461
33680,467,461,461
33681,465,461,462
33682,466,461,462
33683,464,462,461
33684,461,461,461
33685,467,461,460
33686,470,461,462
33687,471,461,462
33688,472,460,462
33689,474,461,462
33690,474,462,463
33691,474,461,463
33692,472,461,459
33693,472,462,462
33694,470,461,463
33695,468,462,462
33696,467,459,462
33697,465,462,463
33698,466,460,461
33699,467,458,462
33700,467,462,463
33701,470,462,463
33702,468,465,462
33703,470,462,462
33704,473,461,463
33705,470,460,461
33706,472,461,461
33707,474,461,463
33708,474,462,463
33709,475,461,462
33710,480,461,463
33711,479,459,462
33712,478,459,463
33713,479,461,461
33714,482,461,461
33715,482,462,461
33716,483,461,461
33717,484,461,463
33718,485,461,463
33719,484,462,464
33720,483,461,463
33721,483,459,461
33722,486,461,462
33723,485,461,463
33724,485,460,463
33725,487,459,461
33726,484,462,464
33727,487,462,462
33728,488,461,459
33729,486,462,462
33730,483,463,462
33731,480,463,463
33732,477,463,462
33733,476,461,464
33734,477,462,463
33735,473,462,463
33736,477,461,462
33737,476,459,463
33738,478,461,464
33739,481,461,463
33740,482,461,462
33741,482,458,461
33742,484,461,463
33743,483,463,463
33744,485,461,462
33745,483,462,462
33746,486,461,463
33747,488,462,461
33748,489,462,463
33749,488,461,462
33750,484,460,463
33751,482,462,464
33752,478,460,462
33753,480,462,462
33754,482,460,461
33755,480,461,463
33756,479,461,461
33757,481,459,462
33758,478,462,462
33759,480,463,463
33760,480,460,462
33761,478,462,463
33762,482,460,462
33763,478,461,463
33764,482,458,461
33765,479,460,462
33766,483,461,463
33767,485,462,461
33768,486,462,460
33769,489,461,463
33770,491,462,464
33771,493,460,462
33772,493,460,463
33773,492,462,463
33774,488,461,463
33775,484,460,462
33776,478,459,463
33777,469,462,462
33778,465,458,462
33779,463,462,461
33780,468,462,460
33781,474,463,461
33782,476,461,462
33783,480,462,461
33784,482,462,463
33785,485,460,462
33786,484,463,462
33787,479,462,460
33788,475,462,460
33789,473,461,464
33790,473,460,462
33791,473,462,463
33792,475,462,463
33793,476,462,461
33794,479,462,461
33795,481,464,463
33796,479,462,463
33797,478,461,459
33798,477,461,461
33799,478,463,462
33800,478,458,462
33801,476,462,463
33802,474,460,462
33803,472,461,461
33804,474,459,463
33805,474,461,463
33806,478,462,463
33807,476,461,462
33808,481,462,462
33809,483,461,462
33810,479,458,461
33811,476,461,461
33812,473,461,462
33813,466,462,461
33814,464,462,462
33815,463,462,460
33816,463,463,461
33817,462,462,462
33818,463,461,463
33819,463,459,463
33820,461,459,461
33821,462,461,462
33822,461,462,462
33823,462,461,462
33824,461,461,462
33825,463,460,463
33826,462,463,461
33827,463,462,461
33828,466,462,462
33829,471,462,462
33830,474,463,460
33831,476,461,461
33832,477,462,462
33833,477,461,460
33834,475,461,461
33835,471,461,462
33836,465,461,463
33837,467,462,463
33838,471,458,462
33839,475,462,460
33840,478,461,459
33841,481,462,459
33842,482,461,462
33843,480,462,461
33844,477,461,462
33845,468,460,462
33846,469,462,461
33847,465,459,463
33848,463,462,460
33849,461,462,462
33850,459,461,462
33851,459,459,461
33852,459,461,460
33853,456,461,461
33854,456,462,463
33855,456,462,461
33856,457,460,463
33857,456,461,462
33858,455,460,461
33859,454,460,461
33860,454,460,463
33861,458,462,462
33862,455,460,462
33863,457,462,460
33864,460,461,461
33865,458,462,459
33866,460,461,461
33867,455,463,464
33868,453,461,462
33869,452,462,463
33870,449,461,463
33871,448,462,463
33872,446,462,460
33873,444,461,463
33874,446,459,463
33875,449,460,462
33876,447,462,459
33877,450,460,461
33878,454,462,462
33879,455,462,463
33880,456,461,461
33881,456,461,462
33882,458,461,462
33883,457,461,461
33884,452,461,461
33885,453,460,463
33886,455,461,462
33887,454,460,463
33888,455,461,464
33889,453,461,463
33890,452,461,462
33891,451,461,462
33892,452,460,462
33893,451,463,462
33894,447,461,462
1741017599882,NEW REP,,
33895,448,460,460
33896,450,460,463
33897,451,460,462
33898,452,461,461
33899,452,460,463
33900,454,461,462
33901,453,458,462
33902,453,460,464
33903,450,461,460
33904,452,461,462
33905,454,462,461
33906,452,461,461
33907,452,461,462
33908,450,462,463
33909,448,461,462
33910,447,462,462
33911,448,461,462
33912,446,460,462
33913,444,462,462
33914,446,460,462
33915,444,460,463
33916,444,461,461
33917,448,461,463
33918,450,460,461
33919,452,458,461
33920,455,461,463
33921,459,460,464
33922,460,461,463
33923,463,461,463
33924,462,459,462
33925,462,461,463
33926,468,461,463
33927,467,459,462
33928,464,459,463
33929,457,460,463
33930,449,463,464
33931,439,463,463
33932,436,462,464
33933,435,461,462
33934,437,461,463
33935,437,461,463
33936,436,460,464
33937,431,462,462
33938,431,461,463
33939,434,461,462
33940,436,459,462
33941,436,460,460
33942,439,461,463
33943,440,460,463
33944,440,460,464
33945,438,462,463
33946,437,462,461
33947,438,459,463
33948,440,462,459
33949,447,462,462
33950,453,462,462
33951,451,461,464
33952,447,462,460
33953,441,461,463
33954,433,461,460
33955,429,460,461
33956,428,461,462
33957,427,461,462
33958,428,461,462
33959,431,461,461
33960,432,460,463
33961,433,463,464
33962,435,461,463
33963,437,461,462
33964,438,463,463
33965,439,461,463
33966,442,461,463
33967,441,462,462
33968,445,461,459
33969,446,461,464
33970,444,461,464
33971,440,460,463
33972,439,461,462
33973,434,461,461
33974,434,461,461
33975,425,460,460
33976,421,461,460
33977,419,461,462
33978,414,460,464
33979,411,459,462
33980,405,462,463
33981,409,460,462
33982,407,461,463
33983,408,461,461
33984,405,461,463
33985,401,461,463
33986,405,463,460
33987,408,462,461
33988,413,459,462
33989,419,459,462
33990,419,460,461
33991,423,461,462
33992,421,460,461
33993,422,461,463
33994,422,461,459
33995,424,461,461
33996,423,462,463
33997,425,459,461
33998,423,459,462
33999,421,460,462
34000,419,462,464
34001,419,458,462
34002,421,462,463
34003,424,461,462
34004,423,461,462
34005,423,463,462
34006,423,462,462
34007,423,461,463
34008,423,461,462
34009,421,462,460
34010,419,461,462
34011,415,462,461
34012,411,461,463
34013,409,463,462
34014,404,462,462
34015,402,461,461
34016,399,460,461
34017,397,462,463
34018,397,461,461
34019,392,461,462
34020,390,455,461
34021,390,461,462
34022,390,461,462
34023,388,461,459
34024,388,463,461
34025,389,461,461
34026,389,463,462
34027,389,461,461
34028,390,459,463
34029,389,460,461
34030,390,461,460
34031,385,462,462
34032,385,460,460
34033,386,461,461
34034,386,462,461
34035,384,460,462
34036,385,461,462
34037,384,462,463
34038,387,459,461
34039,388,461,461
34040,390,460,460
34041,393,463,461
34042,396,460,461
34043,398,460,463
34044,399,459,462
34045,402,462,462
34046,399,462,461
34047,401,459,461
34048,402,462,461
34049,403,461,463
34050,404,462,461
34051,405,459,461
34052,405,461,461
34053,403,462,462
34054,396,461,460
34055,395,460,462
34056,394,460,462
34057,391,461,462
34058,384,460,463
34059,376,462,464
34060,371,462,462
34061,363,462,460
34062,368,461,459
34063,372,461,462
34064,370,461,460
34065,374,461,462
34066,379,461,462
34067,383,461,462
34068,385,460,462
34069,387,461,460
34070,385,460,461
34071,385,461,462
34072,381,460,462
34073,381,460,463
34074,378,457,462
34075,376,461,463
34076,378,461,462
34077,382,462,461
34078,383,460,462
34079,384,463,462
34080,385,462,461
34081,384,459,462
34082,383,461,459
34083,383,460,462
34084,380,460,464
34085,379,460,462
34086,375,462,459
34087,375,461,463
34088,373,462,462
34089,374,460,463
34090,375,459,463
34091,376,461,463
34092,381,461,464
34093,383,460,462
34094,380,461,463
34095,382,462,461
34096,379,463,462
34097,378,460,461
34098,372,463,460
34099,369,461,460
34100,367,461,463
34101,362,462,465
34102,363,461,464
34103,363,459,462
34104,362,461,463
34105,366,460,462
34106,369,462,462
34107,370,462,462
34108,376,462,463
34109,373,461,463
34110,371,460,463
34111,370,459,463
34112,367,463,460
34113,367,461,462
34114,366,461,463
34115,367,462,463
34116,373,462,461
34117,374,461,462
34118,379,460,462
34119,382,462,460
34120,387,460,463
34121,391,462,462
34122,396,460,463
34123,398,459,463
34124,398,462,463
34125,397,462,462
34126,395,461,462
34127,392,462,462
34128,391,461,463
34129,388,461,462
34130,394,462,462
34131,390,462,461
34132,390,462,462
34133,391,462,463
34134,388,460,462
34135,385,460,462
34136,380,462,462
34137,377,460,461
34138,373,462,460
34139,370,458,462
34140,367,458,463
34141,371,462,461
34142,372,462,460
34143,378,464,463
34144,384,459,462
34145,390,460,461
34146,395,462,460
34147,400,459,462
34148,403,461,462
34149,401,462,462
34150,400,462,463
34151,398,461,462
34152,394,460,462
34153,389,459,462
34154,387,462,463
34155,386,462,462
34156,385,462,461
34157,385,462,462
34158,385,460,463
34159,386,459,461
34160,383,460,463
34161,384,460,462
34162,383,462,460
34163,383,462,462
34164,381,459,463
34165,383,460,461
34166,385,462,462
34167,390,462,462
34168,394,462,463
34169,395,462,461
34170,399,461,463
34171,400,461,462
34172,403,462,463
34173,402,460,463
34174,401,462,460
34175,398,460,462
34176,393,461,463
34177,391,459,461
34178,389,460,462
34179,388,462,463
34180,385,461,461
34181,381,460,463
34182,376,461,461
34183,375,463,463
34184,375,461,463
34185,374,460,461
34186,370,461,462
34187,369,459,463
34188,367,461,462
34189,363,462,461
34190,363,464,461
34191,360,462,462
34192,358,463,463
34193,362,459,463
34194,361,461,462
34195,372,462,462
34196,378,462,460
34197,384,461,460
34198,385,461,464
34199,390,459,462
34200,391,461,458
34201,391,461,463
34202,393,462,463
34203,398,459,460
34204,400,461,461
34205,403,461,461
34206,402,457,462
34207,400,461,464
34208,401,461,461
34209,397,462,459
34210,391,462,461
34211,380,459,462
34212,371,461,461
34213,358,461,462
34214,342,462,462
34215,333,462,462
34216,327,460,462
34217,323,461,463
34218,325,458,462
34219,329,462,463
34220,340,462,462
34221,347,461,463
34222,351,460,460
34223,358,461,462
34224,360,458,462
34225,361,462,463
34226,360,459,462
34227,361,460,462
34228,359,461,460
34229,359,462,463
34230,362,462,463
34231,360,461,461
34232,360,462,461
34233,360,462,462
34234,362,459,462
34235,361,461,459
34236,364,462,459
34237,367,460,459
34238,368,462,461
34239,372,461,462
34240,373,461,462
34241,371,462,463
34242,371,461,461
34243,364,462,462
34244,365,458,461
34245,365,460,462
34246,365,461,460
34247,372,461,462
34248,377,462,463
34249,379,461,463
34250,383,459,463
34251,386,460,460
34252,391,460,461
34253,396,460,461
34254,398,460,462
34255,400,462,459
34256,406,462,462
34257,409,460,463
34258,410,461,463
34259,416,458,463
34260,419,462,460
34261,419,462,460
34262,419,461,462
34263,421,462,462
34264,424,461,462
34265,425,460,463
34266,427,463,460
34267,432,460,462
34268,439,459,461
34269,451,462,461
34270,463,461,462
34271,469,462,463
34272,477,459,462
34273,483,462,462
34274,485,460,460
34275,488,462,462
34276,492,462,461
34277,495,459,462
34278,500,462,458
34279,504,460,461
34280,506,460,462
34281,504,461,461
34282,501,461,460
34283,507,458,461
34284,512,460,461
34285,515,463,462
34286,516,461,460
34287,514,463,461
34288,510,460,460
34289,510,461,461
34290,513,458,460
34291,518,459,460
34292,522,460,462
34293,526,460,461
34294,525,459,462
34295,522,461,463
34296,520,462,462
34297,516,461,462
34298,516,460,460
34299,518,461,461
34300,520,459,462
34301,521,460,460
34302,518,460,462
34303,528,461,462
34304,537,462,461
34305,546,461,462
34306,548,461,460
34307,551,461,462
34308,554,460,462
34309,558,460,462
34310,563,462,463
34311,568,460,461
34312,574,461,462
34313,575,461,463
34314,576,463,461
34315,579,462,462
34316,584,460,464
34317,590,461,461
34318,596,461,462
34319,602,461,459
34320,604,460,462
34321,613,460,462
34322,614,462,463
34323,620,460,463
34324,622,462,462
34325,620,462,462
34326,624,460,461
34327,625,461,463
34328,628,461,459
34329,634,461,462
34330,635,462,461
34331,637,459,462
34332,635,459,460
34333,632,461,463
34334,625,460,463
34335,620,460,462
34336,613,463,458
34337,609,462,462
34338,607,461,462
34339,608,462,460
34340,613,461,459
34341,613,459,460
34342,621,460,461
34343,627,459,462
34344,632,459,460
34345,635,460,463
34346,638,461,462
34347,638,461,464
34348,636,462,462
34349,634,461,459
34350,634,461,463
34351,634,460,462
34352,637,460,460
34353,640,461,461
34354,646,460,462
34355,649,459,461
34356,653,461,462
34357,655,459,461
34358,658,459,462
34359,660,461,462
34360,663,462,463
34361,666,461,462
34362,668,462,461
34363,670,458,462
34364,674,460,463
34365,677,460,461
34366,683,459,461
34367,685,460,462
34368,688,461,463
34369,685,462,461
34370,681,462,463
34371,678,459,462
34372,670,461,461
34373,667,461,460
34374,662,461,463
34375,657,460,462
34376,654,459,463
34377,654,461,462
34378,654,460,463
34379,656,461,463
34380,659,462,461
34381,663,462,461
34382,665,461,460
34383,668,459,462
34384,673,460,462
34385,675,461,462
34386,677,461,463
34387,680,461,461
34388,677,461,460
34389,677,461,463
34390,678,462,461
34391,677,460,463
34392,671,461,462
34393,669,460,462
34394,667,461,461
34395,666,460,462
34396,663,461,462
34397,662,457,461
34398,661,459,462
34399,661,461,461
34400,660,461,461
34401,660,462,457
34402,661,460,462
34403,662,461,461
34404,662,460,461
34405,661,461,462
34406,660,461,460
34407,661,462,462
34408,659,462,463
34409,654,461,462
34410,653,460,464
34411,649,461,459
34412,647,462,461
34413,647,460,461
34414,642,460,462
34415,640,462,463
34416,636,461,461
34417,636,460,463
34418,638,461,462
34419,637,461,463
34420,640,460,463
34421,642,460,462
34422,643,459,461
34423,643,461,461
34424,645,461,462
34425,644,461,459
34426,646,460,460
34427,646,462,459
34428,644,461,461
34429,646,461,462
34430,644,460,463
34431,640,460,462
34432,635,460,462
34433,630,460,461
34434,623,460,459
34435,619,461,459
34436,616,461,462
34437,611,459,461
34438,605,459,460
34439,603,461,462
34440,603,461,462
34441,600,461,460
34442,602,459,462
34443,602,459,459
34444,603,459,461
34445,603,460,461
34446,604,461,461
34447,604,458,462
34448,605,462,460
34449,607,458,462
34450,608,462,463
34451,610,461,461
34452,609,460,461
34453,609,460,461
34454,607,462,461
34455,607,461,461
34456,603,462,462
34457,603,461,462
34458,600,461,461
34459,600,461,463
34460,599,461,461
34461,599,461,461
34462,596,461,461
34463,598,457,461
34464,597,461,463
34465,598,461,461
34466,599,459,461
34467,598,461,461
34468,603,461,463
34469,602,460,462
34470,600,459,462
34471,600,460,463
34472,598,461,462
34473,596,461,462
34474,590,461,462
34475,591,462,462
34476,591,459,461
34477,593,460,461
34478,592,461,464
34479,592,460,462
34480,596,460,461
34481,596,461,463
34482,597,460,461
34483,599,458,460
34484,601,462,461
34485,600,461,461
34486,601,461,461
34487,599,460,461
34488,595,461,460
34489,590,459,462
34490,588,461,461
34491,583,460,461
34492,584,460,462
34493,581,461,460
34494,586,462,461
34495,585,461,464
34496,582,461,462
34497,585,462,461
34498,581,462,462
34499,582,463,462
34500,581,460,461
34501,583,461,461
34502,582,461,462
34503,581,461,460
34504,580,461,462
34505,581,463,462
34506,579,463,462
34507,582,459,461
34508,586,461,463
34509,582,461,461
34510,585,462,460
34511,585,462,462
34512,583,462,461
34513,581,460,462
34514,578,458,463
34515,574,460,460
34516,569,460,463
34517,567,462,461
34518,564,460,461
34519,560,460,463
34520,558,459,459
34521,554,462,463
34522,551,461,463
34523,549,460,460
34524,547,462,462
34525,550,461,462
34526,551,462,462
34527,554,462,460
34528,556,462,462
34529,558,461,461
34530,556,461,462
34531,554,461,461
34532,547,460,462
34533,539,459,461
34534,533,459,460
34535,528,462,462
34536,526,460,462
34537,525,460,463
34538,527,461,463
34539,526,459,463
34540,526,462,462
34541,528,461,462
34542,528,462,462
34543,529,460,462
34544,529,461,463
34545,532,461,463
34546,532,462,462
34547,532,460,461
34548,529,458,461
34549,523,460,461
34550,515,460,461
34551,507,461,461
34552,500,459,461
34553,499,461,461
34554,499,461,461
34555,502,461,463
34556,500,460,462
34557,501,461,462
34558,500,462,463
34559,495,461,462
34560,495,461,462
34561,493,459,462
34562,498,459,462
34563,491,461,462
34564,491,458,463
34565,491,461,463
34566,488,460,463
34567,489,461,463
34568,490,461,460
34569,493,462,462
34570,495,461,461
34571,495,461,461
34572,492,460,462
34573,488,461,461
34574,489,458,462
34575,488,463,462
34576,485,461,460
34577,483,460,461
34578,483,459,462
34579,481,461,462
34580,479,462,462
34581,481,462,461
34582,481,461,463
34583,481,459,463
34584,481,460,461
34585,480,460,462
34586,481,461,462
34587,482,461,461
34588,479,458,460
34589,481,460,462
34590,480,462,462
34591,480,461,461
34592,478,459,461
34593,472,462,462
34594,463,463,462
34595,458,458,462
34596,453,461,463
34597,449,460,463
34598,448,460,463
34599,445,462,461
34600,444,461,461
34601,445,459,461
34602,445,459,462
34603,449,460,462
34604,455,461,463
34605,461,462,462
34606,466,460,463
34607,468,460,461
34608,472,462,459
34609,472,461,463
34610,470,460,462
34611,472,461,462
34612,469,461,462
34613,461,462,461
34614,452,461,461
34615,440,461,463
34616,430,461,463
34617,419,462,463
34618,416,461,462
34619,416,459,462
34620,413,462,462
34621,413,459,463
34622,410,461,461
34623,407,460,462
34624,406,459,461
34625,406,459,462
34626,405,461,463
34627,407,459,458
34628,412,463,462
34629,414,460,464
34630,416,459,463
34631,415,460,462
34632,412,460,462
34633,411,461,464
34634,410,462,460
34635,410,461,463
34636,411,461,461
34637,413,461,462
34638,413,462,462
34639,415,460,459
34640,417,461,462
34641,422,459,463
34642,424,461,461
34643,431,460,462
34644,434,460,461
34645,435,462,462
34646,438,462,463
34647,440,461,462
34648,442,459,463
34649,448,459,463
34650,456,460,462
34651,464,461,462
34652,473,462,461
34653,476,462,460
34654,477,459,461
34655,478,460,462
34656,471,461,463
34657,472,461,461
34658,466,461,462
34659,464,462,462
34660,462,460,462
34661,462,461,463
34662,465,460,462
34663,469,461,462
34664,474,460,463
34665,481,460,463
34666,486,461,462
34667,493,460,463
34668,497,462,462
34669,504,463,463
34670,508,461,461
34671,507,460,461
34672,510,459,460
34673,509,460,462
34674,512,458,461
34675,511,461,461
34676,516,460,463
34677,518,462,462
34678,519,462,462
34679,522,461,461
34680,525,461,463
34681,526,458,462
34682,529,460,462
34683,531,460,462
34684,532,459,461
34685,529,460,462
34686,532,461,462
34687,534,461,464
34688,533,461,462
34689,531,461,462
34690,530,461,463
34691,528,461,463
34692,527,460,461
34693,529,461,463
34694,530,460,463
34695,532,462,463
34696,533,458,464
34697,533,461,463
34698,534,461,463
34699,533,460,462
34700,529,459,463
34701,524,460,462
34702,520,461,462
34703,520,461,463
34704,521,461,463
34705,523,461,459
34706,525,460,462
34707,528,460,462
34708,530,460,462
34709,533,461,462
34710,540,460,461
34711,543,460,462
34712,548,459,462
34713,545,459,463
34714,538,461,462
34715,533,459,463
34716,524,461,463
34717,517,460,462
34718,510,462,461
34719,508,460,458
34720,510,462,461
34721,515,461,463
34722,518,461,461
34723,521,461,461
34724,526,458,462
34725,527,462,461
34726,529,461,461
34727,528,461,462
34728,529,459,462
34729,525,459,463
34730,520,460,463
34731,519,462,462
34732,517,461,461
34733,514,462,460
34734,514,460,461
34735,515,462,460
34736,519,459,459
34737,521,460,462
34738,528,461,463
34739,531,460,462
34740,532,461,461
34741,532,462,461
34742,527,459,462
34743,526,460,462
34744,523,462,461
34745,522,462,462
34746,523,460,462
34747,530,460,461
34748,535,458,461
34749,542,460,462
34750,547,460,461
34751,550,459,463
34752,551,462,462
34753,553,461,461
34754,553,462,462
34755,550,460,463
34756,546,460,463
34757,540,462,462
34758,533,461,462
34759,531,460,462
34760,527,462,462
34761,524,460,459
34762,525,461,462
34763,528,461,463
34764,532,459,461
34765,538,461,461
34766,542,461,461
34767,547,461,462
34768,551,462,459
34769,549,462,461
34770,547,460,460
34771,546,461,462
34772,541,460,464
34773,536,461,461
34774,535,461,462
34775,534,461,460
34776,531,460,463
34777,532,460,462
34778,529,459,462
34779,527,461,462
34780,527,462,462
34781,525,460,460
34782,522,460,462
34783,517,462,460
34784,514,462,462
34785,512,461,462
34786,511,460,461
34787,514,461,463
34788,516,460,461
34789,517,460,462
34790,515,461,461
34791,518,461,461
34792,518,461,460
34793,521,461,462
34794,519,461,463
34795,523,460,461
34796,525,460,463
34797,521,462,461
34798,522,460,463
34799,519,460,461
34800,515,462,462
34801,513,459,461
34802,513,460,462
34803,517,461,461
34804,522,460,459
34805,527,461,462
34806,533,461,462
34807,537,460,463
34808,541,461,462
34809,545,461,460
34810,547,461,462
34811,550,460,461
34812,547,461,462
34813,546,461,461
34814,545,460,463
34815,541,460,462
34816,533,461,462
34817,526,462,462
34818,521,462,463
34819,518,462,462
34820,514,460,458
34821,518,460,462
34822,517,460,462
34823,519,459,462
34824,521,461,462
34825,526,462,462
34826,528,458,461
34827,533,460,463
34828,534,460,459
34829,541,459,462
34830,545,462,461
34831,542,462,461
34832,542,460,462
34833,539,458,462
34834,535,462,462
34835,535,461,462
34836,533,461,462
34837,531,459,463
34838,528,459,462
34839,527,461,461
34840,523,458,462
34841,522,462,463
34842,523,461,460
34843,522,461,464
34844,530,461,462
34845,533,458,462
34846,537,461,462
34847,539,462,462
34848,541,459,460
34849,542,462,461
34850,539,459,462
34851,537,461,461
34852,530,461,460
34853,528,460,463
34854,519,461,463
34855,520,459,461
34856,507,461,462
34857,502,462,462
34858,502,461,463
34859,502,461,462
34860,502,462,460
34861,502,460,462
34862,505,462,461
34863,506,461,464
34864,510,460,461
34865,515,461,460
34866,517,462,462
34867,521,461,462
34868,521,460,462
34869,526,460,463
34870,527,460,462
34871,528,460,461
34872,525,460,461
34873,517,460,463
34874,512,461,462
34875,506,459,462
34876,494,462,462
34877,490,461,462
34878,488,459,461
34879,484,459,462
34880,490,461,461
34881,493,460,462
34882,496,459,461
34883,505,462,461
34884,509,457,462
34885,512,462,462
34886,513,461,459
34887,515,461,463
34888,513,459,463
34890,511,461,462
34892,513,462,460
34893,515,460,462
34894,517,461,461
34894,519,460,461
34895,520,460,462
34896,516,460,461
34897,516,462,460
34898,517,461,460
34899,515,459,461
34900,518,461,462
34901,519,457,460
34902,518,459,461
34903,519,461,459
34903,521,458,461
34904,525,461,463
34905,523,460,461
34906,527,457,462
34907,527,462,461
34908,528,461,462
34909,528,461,461
34910,529,461,462
34911,524,461,459
34912,521,460,462
34913,516,462,460
34914,515,461,460
34915,507,459,461
34916,501,462,463
34917,498,459,462
34918,491,461,462
34919,490,460,462
34920,486,461,462
34921,485,461,461
34922,487,460,461
34923,487,460,462
34924,489,462,459
34925,494,460,462
34926,499,457,462
34927,500,462,461
34928,504,461,462
34929,507,461,462
34930,507,460,461
34931,509,461,463
34932,512,460,462
34933,513,461,462
34934,515,460,463
34935,513,461,461
34936,514,459,462
34937,514,462,462
34938,513,462,461
34939,510,461,459
34940,506,461,463
34941,503,459,461
34942,502,461,462
34943,503,460,461
34944,505,457,462
34945,508,461,463
34946,506,461,463
34947,506,461,462
34948,512,457,461
34949,517,461,462
34950,522,459,461
34951,526,457,460
34952,525,462,462
34953,526,462,459
34954,531,460,460
34955,529,462,462
34956,535,460,463
34957,539,460,461
34958,538,461,461
34959,539,460,463
34960,538,459,461
34961,538,463,462
34962,538,460,461
34963,540,461,463
34964,540,460,462
34965,541,462,460
34966,542,462,463
34967,542,460,461
34968,546,461,464
34969,547,460,462
34970,550,462,462
34971,551,461,462
34972,552,460,459
34973,551,462,462
34974,555,458,462
34975,554,459,463
34976,555,459,463
34977,554,458,464
34978,555,462,462
34979,555,460,460
34980,554,461,461
34981,551,462,460
34982,551,459,461
34983,551,462,461
34984,550,459,463
34985,550,461,461
34986,550,461,463
34987,548,461,461
34988,548,460,462
34989,550,460,461
34990,549,461,460
34991,550,462,462
34992,550,460,464
34993,548,461,462
34994,551,461,463
34995,549,460,462
34996,548,462,462
34997,548,461,462
34998,551,461,461
34999,552,460,462
35000,550,461,459
35001,553,461,463
35002,556,461,462
35003,557,461,462
35004,561,459,462
35005,564,463,462
35006,567,462,462
35007,567,458,462
35008,569,461,462
35009,570,461,462
35010,575,461,463
35011,573,459,462
35012,572,462,461
35013,572,462,459
35014,576,460,461
35015,573,461,459
35016,572,460,461
35017,573,462,463
35018,570,460,462
35019,570,462,462
35020,565,459,462
35021,560,461,461
35022,556,461,460
35023,552,461,463
35024,556,461,462
35025,559,460,463
35026,559,461,462
35027,560,461,462
35028,556,460,462
35029,558,461,463
35030,558,461,460
35031,559,459,461
35032,563,462,462
35033,563,461,462
35034,562,461,462
35035,563,461,462
35036,561,461,462
35037,567,462,461
35038,567,461,462
35039,569,462,462
35040,569,461,461
35041,571,461,462
35042,574,459,462
35043,575,461,463
35044,577,462,462
35045,576,462,462
35046,582,462,459
35047,577,462,463
35048,577,458,461
35049,578,459,462
35050,579,462,461
35051,578,462,462
35052,580,461,463
35053,580,461,462
35054,581,460,462
35055,581,460,461
35056,582,461,462
35057,578,461,459
35058,578,461,462
35059,580,461,462
35060,580,461,461
35061,581,460,461
35062,580,462,462
35063,580,461,461
35064,580,462,459
35065,580,461,462
35066,582,460,462
35067,581,461,459
35068,579,461,463
35069,582,462,461
35070,583,461,461
35071,581,461,460
35072,579,461,459
35073,581,461,461
35074,579,459,462
35075,574,461,463
35076,574,459,461
35077,574,461,462
35078,571,461,461
35079,570,462,463
35080,573,459,461
35081,572,462,461
35082,568,462,462
35083,568,461,462
35084,566,461,459
35085,564,461,459
35086,566,460,461
35087,567,462,461
35088,566,460,462
35089,565,460,463
35090,562,460,461
35091,562,460,460
35092,564,462,463
35093,560,462,459
35094,559,461,462
35095,555,462,461
35096,553,460,463
35097,554,461,461
35098,555,461,463
35099,554,461,463
35100,554,460,462
35101,551,462,461
35102,551,460,461
35103,549,461,460
35104,552,459,461
35105,551,461,463
35106,556,461,461
35107,560,462,462
35108,562,461,462
35109,565,460,462
35110,567,461,463
35111,565,463,461
35112,563,461,460
35113,563,462,463
35114,564,462,462
35115,566,461,462
35116,565,461,462
35117,565,461,460
35118,564,459,462
35119,563,461,462
35120,562,461,462
35121,562,461,461
35122,560,460,461
35123,556,460,463
35124,556,461,462
35125,552,460,462
35126,551,460,461
35127,550,460,461
35128,548,459,462
35129,546,461,462
35130,548,462,463
35131,549,462,461
35132,550,461,461
35133,552,460,463
35134,560,461,462
35135,563,462,460
35136,563,461,461
35137,564,458,461
35138,565,458,463
35139,566,460,462
35140,566,460,462
35141,567,462,461
35142,569,461,460
35143,569,462,460
35144,570,458,461
35145,570,461,462
35146,571,460,461
35147,570,461,459
35148,573,458,462
35149,576,461,462
35150,573,462,461
35151,575,461,462
35152,576,460,461
35153,577,460,461
35154,574,460,462
35155,571,460,462
35156,568,461,462
35157,567,460,462
35158,565,462,461
35159,565,459,462
35160,561,461,462
35161,564,461,462
35162,563,461,461
35163,559,459,461
35164,558,461,462
35165,555,461,462
35166,552,462,461
35167,548,459,462
35168,547,460,462
35169,545,461,460
35170,548,461,461
35171,547,462,460
35172,547,462,462
35173,549,460,461
35174,545,461,461
35175,545,461,460
35176,545,459,460
35177,542,461,461
35178,543,462,463
35179,542,459,461
35180,540,461,461
35181,538,463,459
35182,537,462,463
35183,537,461,461
35184,537,460,458
35185,537,461,462
35186,540,460,462
35187,536,461,462
35188,538,461,460
35189,535,461,462
35190,533,462,462
35191,526,458,462
35192,522,461,461
35193,517,462,462
35194,513,461,458
35195,510,462,462
35196,510,461,462
35197,505,462,460
35198,503,461,463
35199,501,461,462
35200,500,462,461
35201,499,462,460
35202,491,461,462
35203,493,462,461
35204,490,460,461
35205,489,461,461
35206,488,461,459
35207,487,461,462
35208,489,459,463
35209,490,460,462
35210,489,460,462
35211,488,460,462
35212,487,461,462
35213,484,462,460
35214,482,460,462
35215,479,460,461
35216,477,461,462
35217,476,461,462
35218,470,461,462
35219,470,461,461
35220,470,463,462
35221,469,461,463
35222,469,460,461
35223,467,461,462
35224,470,461,463
35225,466,460,464
35226,470,459,462
35227,469,460,462
35228,467,461,460
35229,466,460,462
35230,462,460,460
35231,462,461,462
35232,461,462,462
35233,460,461,461
35234,459,462,462
35235,457,461,462
35236,456,458,460
35237,454,461,462
35238,453,459,461
35239,449,461,462
35240,452,457,462
35241,452,460,463
35242,452,461,462
35243,454,459,462
35244,455,459,462
35245,458,460,461
35246,454,461,462
35247,457,460,461
35248,459,459,463
35249,460,461,461
35250,460,460,460
35251,462,459,463
35252,463,461,459
35253,466,459,461
35254,465,461,461
35255,465,460,461
35256,467,461,463
35257,468,460,462
35258,470,458,462
35259,471,462,461
35260,471,462,461
35261,471,460,462
35262,468,461,461
35263,466,462,462
35264,465,461,460
35265,465,460,461
35266,463,461,462
35267,467,462,461
35268,467,461,462
35269,465,460,461
35270,467,461,464
35271,470,461,461
35272,470,461,462
35273,469,461,461
35274,471,461,461
35275,471,460,462
35276,471,460,463
35277,470,462,462
35278,469,460,460
35279,468,462,461
35280,468,461,462
35281,467,462,461
35282,466,462,462
35283,466,461,460
35284,468,461,461
35285,470,459,461
35286,471,462,460
35287,476,459,462
35288,477,461,461
35289,478,461,461
35290,481,461,460
35291,485,461,462
35292,487,462,460
35293,488,460,463
35294,490,462,461
35295,492,462,461
35296,492,461,461
35297,492,460,458
35298,493,459,462
35299,493,460,462
35300,496,461,462
35301,493,460,459
35302,497,461,462
35303,498,461,461
35304,494,462,462
35305,490,462,461
35306,494,461,461
35307,496,460,462
35308,496,459,463
35309,497,461,460
35310,496,462,461
35311,495,461,461
35312,497,459,461
35313,494,461,460
35314,491,461,460
35315,491,461,459
35316,490,459,461
35317,486,460,463
35318,487,462,461
35319,487,459,460
35320,488,460,463
35321,486,461,461
35322,489,460,462
35323,487,461,462
35324,487,460,462
35325,486,460,459
35326,487,458,461
35327,488,461,462
35328,487,459,461
35329,487,460,462
35330,488,462,462
35331,487,461,463
35332,486,462,461
35333,488,462,460
35334,486,461,459
35335,488,460,462
35336,486,461,462
35337,486,460,462
35338,483,460,461
35339,483,460,462
35340,482,458,461
35341,484,459,461
35342,482,460,462
35343,483,461,463
35344,483,459,462
35345,483,461,463
35346,486,459,462
35347,485,461,461
35348,484,461,460
35349,485,461,460
35350,484,460,460
35351,483,462,460
35352,483,463,461
35353,483,462,462
35354,480,462,461
35355,481,459,463
35356,479,463,462
35357,476,461,459
35358,477,461,462
35359,476,459,462
35360,475,460,462
35361,475,460,461
35362,472,461,461
35363,472,459,462
35364,472,461,461
35365,470,462,462
35366,468,461,460
35367,468,459,462
35368,468,459,462
35369,468,461,462
35370,470,462,460
35371,471,461,462
35372,471,461,460
35373,472,460,461
35374,472,461,462
35375,470,461,462
35376,468,461,461
35377,464,460,462
35378,462,461,460
35379,460,461,462
35380,456,461,461
35381,455,458,462
35382,453,462,463
35383,452,461,461
35384,449,460,460
35385,447,460,463
35386,446,462,462
35387,445,461,461
35388,444,460,459
35389,445,460,460
35390,443,462,460
35391,447,461,462
35392,447,461,461
35393,445,462,460
35394,443,461,462
35395,439,462,459
35396,435,459,460
35397,431,461,460
35398,426,458,460
35399,420,461,462
35400,419,461,461
35401,416,459,462
35402,416,462,461
35403,415,460,462
35404,414,461,462
35405,415,460,461
35406,414,460,461
35407,414,463,462
35408,417,461,461
35409,415,462,462
35410,419,461,461
35411,420,462,460
35412,422,460,458
35413,420,459,462
35414,421,461,462
35415,419,461,462
35416,416,462,460
35417,413,461,462
35418,410,460,462
35419,403,462,462
35420,400,464,461
35421,395,460,462
35422,392,462,462
35423,392,461,459
35424,390,461,461
35425,388,461,459
35426,391,458,462
35427,389,461,462
35428,392,461,461
35429,388,459,461
35430,384,461,462
35431,395,462,462
35432,396,460,460
35433,397,461,462
35434,396,461,459
35435,396,460,462
35436,394,462,461
35437,394,460,462
35438,394,462,462
35439,396,462,460
35440,397,459,462
35441,396,462,461
35442,396,459,462
35443,394,462,460
35444,394,461,462
35445,394,462,462
35446,392,463,460
35447,389,459,462
35448,388,462,461
35449,389,462,462
35450,387,461,462
35451,387,461,461
35452,385,460,461
35453,385,460,461
35454,386,461,462
35455,386,461,460
35456,387,460,461
35457,385,461,462
35458,388,462,460
35459,386,459,462
35460,383,462,461
35461,385,461,462
35462,386,461,462
35463,384,457,462
35464,382,464,462
35465,380,460,461
35466,380,461,461
35467,378,462,461
35468,377,461,461
35469,372,460,461
35470,373,459,461
35471,373,461,462
35472,368,462,463
35473,373,459,462
35474,377,461,463
35475,375,460,462
35476,381,461,460
35477,379,460,460
35478,381,460,461
35479,380,461,461
35480,381,460,462
35481,377,460,461
35482,380,463,462
35483,375,460,463
35484,377,457,461
35485,377,462,463
35486,375,458,462
35487,376,462,462
35488,376,462,463
35489,377,460,462
35490,379,462,463
35491,384,462,462
35492,386,461,461
35493,385,461,462
35494,386,460,462
35495,386,461,462
35496,383,461,461
35497,383,461,460
35498,382,461,462
35499,379,460,461
35500,374,461,461
35501,372,462,462
35502,372,459,462
35503,373,463,461
35504,373,458,462
35505,374,462,461
35506,374,461,461
35507,377,459,461
35508,379,461,462
35509,385,460,463
35510,385,461,461
35511,388,462,461
35512,387,462,463
35513,388,461,463
35514,386,461,462
35515,387,462,460
35516,384,460,463
35517,383,460,461
35518,390,462,460
35519,395,462,462
35520,398,461,461
35521,397,459,461
35522,398,462,461
35523,398,459,461
35524,399,460,462
35525,396,461,460
35526,393,462,461
35527,388,459,460
35528,385,460,462
35529,378,462,462
35530,379,462,462
35531,379,462,459
35532,380,462,461
35533,379,461,462
35534,381,462,462
35535,379,461,462
35536,383,461,460
35537,388,460,462
35538,388,461,459
35539,389,461,461
35540,388,461,461
35541,387,462,462
35542,385,461,461
35543,384,461,463
35544,383,462,460
35545,385,462,462
35546,389,461,462
35547,391,461,462
35548,400,461,461
35549,403,460,462
35550,407,460,461
35551,410,462,463
35552,407,462,462
35553,408,462,462
35554,404,463,463
35555,397,461,459
35556,391,462,462
35557,386,461,462
35558,385,462,462
35559,383,461,459
35560,386,460,462
35561,389,460,461
35562,391,462,461
35563,392,462,461
35564,398,457,462
35565,398,462,462
35566,400,462,462
35567,398,459,461
35568,395,463,460
35569,392,461,462
35570,388,459,462
35571,387,460,463
35572,388,461,462
35573,388,461,463
35574,388,461,459
35575,392,461,461
35576,393,461,460
35577,398,461,461
35578,401,461,461
35579,406,461,461
35580,410,461,462
35581,410,461,463
35582,415,459,461
35583,415,459,462
35584,413,461,459
35585,411,460,462
35586,405,461,461
35587,400,461,461
35588,398,461,460
35589,391,460,462
35590,392,460,461
35591,388,461,462
35592,385,458,462
35593,381,461,461
35594,385,461,461
35595,383,461,462
35596,386,461,460
35597,386,462,464
35598,392,462,461
35599,393,462,458
35600,399,460,463
35601,400,462,462
35602,403,460,461
35603,401,460,462
35604,399,461,461
35605,399,460,461
35606,399,459,462
35607,394,461,460
35608,392,460,462
35609,388,461,460
35610,388,461,462
35611,387,462,459
35612,386,460,461
35613,385,460,462
35614,386,459,462
35615,386,462,462
35616,393,459,462
35617,396,462,459
35618,397,461,461
35619,398,460,462
35620,397,461,459
35621,397,457,463
35622,393,460,460
35623,392,461,462
35624,389,461,460
35625,388,461,461
35626,386,460,462
35627,387,460,463
35628,389,460,462
35629,394,460,462
35630,397,459,463
35631,402,460,463
35632,408,460,461
35633,409,461,461
35634,407,460,462
35635,400,460,463
35636,399,461,461
35637,394,459,463
35638,389,462,461
35639,386,459,463
35640,382,462,462
35641,377,460,462
35642,378,461,463
35643,382,461,462
35644,384,462,461
35645,388,460,463
35646,390,463,460
35647,393,461,461
35648,395,461,462
35649,395,460,463
35650,391,457,461
35651,388,461,459
35652,383,461,462
35653,381,460,462
35654,380,460,461
35655,382,461,463
35656,386,460,461
35657,391,461,461
35658,398,461,463
35659,402,459,461
35660,405,461,460
35661,409,460,463
35662,412,462,462
35663,410,461,462
35664,412,462,463
35665,416,460,463
35666,418,461,461
35667,425,462,462
35668,431,461,461
35669,436,462,460
35670,436,462,462
35671,436,462,461
35672,436,461,465
35673,435,461,463
35674,433,460,461
35675,435,460,462
35676,439,460,459
35677,442,461,463
35678,446,461,463
35679,450,460,462
35680,459,462,461
35681,463,461,461
35682,468,460,463
35683,469,461,462
35684,470,462,461
35685,474,460,461
35686,475,461,459
35687,480,457,461
35688,485,460,463
35689,484,461,459
35690,484,461,462
35691,482,460,463
35692,477,461,459
35693,479,462,462
35694,482,462,463
35695,486,462,462
35696,490,460,461
35697,492,460,459
35698,495,458,464
35699,499,461,460
35700,504,459,462
35701,508,461,462
35702,510,461,463
35703,517,461,460
35704,519,461,461
35705,517,460,462
35706,515,459,462
35707,512,461,459
35708,510,461,459
35709,510,458,461
35710,507,460,462
35711,504,461,462
35712,503,461,462
35713,507,461,462
35714,512,460,462
35715,516,462,460
35716,521,460,462
35717,518,462,463
35718,517,461,460
35719,511,461,463
35720,511,460,463
35721,506,461,463
35722,506,461,462
35723,503,461,460
35724,499,460,462
35725,497,461,459
35726,496,462,460
35727,499,462,461
35728,502,460,461
35729,500,461,462
35730,501,459,462
35731,498,461,462
35732,496,460,463
35733,497,461,462
35734,498,460,462
35735,502,460,461
35736,503,462,462
35737,507,462,462
35738,503,457,461
35739,501,461,461
35740,497,460,461
35741,489,462,462
35742,486,460,462
35743,484,459,462
35744,481,460,463
35745,483,458,462
35746,485,462,462
35747,484,461,460
35748,485,461,462
35749,481,461,462
35750,478,461,461
35751,477,461,462
35752,476,461,464
35753,473,462,462
35754,472,462,462
35755,472,461,461
35756,469,461,462
35757,470,461,462
35758,462,462,460
35759,460,460,463
35760,453,460,462
35761,448,461,462
35762,452,461,463
35763,454,461,462
35764,454,462,462
35765,451,461,461
35766,444,459,462
35767,441,460,462
35768,437,461,461
35769,435,459,461
35770,434,457,462
1741017601758,NEW REP,,
35771,430,461,462
35772,426,461,461
35773,427,463,462
35774,426,462,464
35775,425,460,462
35776,426,462,461
35777,426,459,461
35778,424,462,462
35779,422,461,462
35780,420,458,463
35781,420,461,463
35782,420,461,462
35783,419,461,462
35784,422,461,462
35785,421,461,462
35786,426,462,462
35787,423,462,461
35788,420,461,463
35789,415,459,462
35790,410,460,461
35791,411,460,463
35792,409,461,462
35793,404,461,462
35794,399,460,462
35795,394,461,463
35796,392,461,461
35797,391,463,462
35798,390,461,462
35799,389,461,463
35800,389,462,463
35801,386,461,464
35802,387,460,463
35803,388,461,461
35804,389,461,462
35805,388,460,462
35806,386,460,462
35807,383,460,461
35808,384,461,461
35809,387,461,461
35810,390,462,463
35811,389,461,463
35812,391,462,461
35813,389,460,461
35814,387,460,462
35815,385,461,463
35816,386,461,462
35817,390,460,462
35818,390,462,460
35819,390,462,461
35820,387,462,461
35821,384,460,464
35822,379,461,460
35823,377,462,461
35824,376,462,462
35825,375,461,463
35826,374,462,461
35827,373,461,462
35828,372,461,459
35829,373,460,463
35830,374,462,463
35831,375,460,461
35832,375,460,461
35833,376,460,462
35834,376,461,462
35835,370,463,461
35836,368,458,461
35837,363,461,460
35838,361,462,461
35839,361,462,461
35840,360,461,462
35841,360,458,462
35842,358,458,462
35843,356,461,462
35844,357,461,460
35845,360,460,462
35846,354,461,462
35847,350,462,464
35848,347,462,461
35849,343,461,461
35850,337,461,462
35851,336,461,461
35852,336,460,461
35853,333,460,461
35854,334,460,463
35855,330,460,462
35856,338,461,462
35857,338,461,462
35858,339,460,462
35859,337,461,463
35860,339,461,462
35861,339,461,461
35862,340,456,461
35863,340,458,461
35864,341,462,462
35865,343,461,462
35866,345,460,460
35867,349,462,462
35868,351,461,462
35869,353,460,462
35870,353,461,461
35871,351,461,461
35872,349,461,459
35873,347,459,461
35874,341,461,462
35875,335,461,464
35876,327,461,462
35877,321,462,461
35878,315,459,462
35879,311,462,463
35880,308,462,461
35881,306,461,462
35882,309,459,461
35883,312,460,461
35884,316,461,460
35885,318,461,462
35886,323,457,461
35887,326,461,460
35888,328,462,461
35889,327,461,462
35890,322,458,462
35891,314,461,462
35892,310,460,461
35893,308,459,462
35894,308,458,461
35895,308,460,463
35896,306,462,462
35897,302,461,463
35898,302,462,461
35899,303,461,462
35900,309,462,461
35901,311,461,463
35902,317,462,462
35903,318,461,461
35904,324,461,462
35905,327,461,461
35906,328,461,463
35907,332,459,462
35908,334,461,463
35909,334,461,463
35910,334,459,461
35911,334,460,462
35912,332,461,459
35913,331,461,462
35914,326,461,461
35915,322,461,461
35916,320,461,462
35917,322,462,459
35918,322,461,460
35919,323,461,461
35920,323,462,463
35921,323,459,463
35922,322,461,463
35923,324,462,460
35924,323,461,463
35925,323,461,463
35926,323,460,462
35927,322,461,462
35928,322,458,461
35929,321,461,462
35930,318,461,462
35931,314,462,460
35932,311,460,464
35933,305,461,462
35934,300,459,461
35935,295,463,462
35936,295,462,461
35937,297,459,463
35938,299,460,463
35939,303,461,461
35940,308,459,463
35941,312,461,462
35942,314,459,463
35943,313,460,462
35944,314,461,463
35945,312,462,460
35946,309,463,463
35947,307,460,462
35948,307,462,461
35949,310,459,462
35950,313,461,463
35951,316,462,462
35952,317,459,462
35953,321,462,459
35954,322,461,460
35955,317,463,462
35956,313,460,462
35957,308,460,462
35958,299,460,463
35959,296,462,459
35960,291,463,461
35961,294,461,463
35962,297,462,462
35963,303,460,462
35964,312,460,460
35965,319,460,464
35966,324,461,463
35967,325,461,462
35968,326,461,461
35969,328,458,461
35970,328,458,460
35971,325,463,462
35972,325,458,462
35973,322,460,463
35974,324,458,462
35975,329,461,461
35976,333,461,463
35977,340,462,461
35978,343,459,462
35979,346,461,461
35980,347,462,462
35981,345,461,463
35982,348,461,463
35983,349,460,461
35984,344,460,463
35985,338,461,459
35986,334,460,462
35987,331,461,462
35988,333,462,462
35989,334,461,460
35990,338,461,463
35991,347,460,464
35992,351,461,464
35993,357,461,460
35994,361,461,462
35995,361,458,463
35996,362,461,461
35997,363,460,462
35998,366,460,462
35999,373,460,462
36000,380,462,462
36001,388,459,461
36002,392,461,462
36003,399,461,462
36004,402,461,462
36005,408,461,461
36006,411,461,461
36007,413,461,459
36008,412,461,462
36009,407,461,462
36010,401,460,463
36011,394,462,462
36012,389,458,462
36013,385,459,461
36014,387,461,462
36015,389,460,463
36016,397,461,460
36017,404,461,461
36018,406,460,460
36019,410,461,460
36020,413,459,462
36021,416,460,460
36022,419,460,462
36023,416,460,462
36024,405,461,459
36025,397,462,462
36026,390,459,462
36027,388,459,463
36028,394,460,463
36029,397,462,464
36030,402,463,461
36031,408,461,462
36032,415,461,461
36033,422,461,462
36034,429,461,459
36035,436,461,462
36036,437,461,461
36037,436,461,462
36038,434,461,461
36039,431,461,461
36040,430,461,462
36041,430,460,461
36042,432,462,462
36043,436,459,463
36044,440,460,462
36045,443,459,463
36046,444,460,461
36047,450,461,461
36048,451,463,463
36049,453,460,461
36050,448,460,463
36051,440,458,462
36052,432,459,462
36053,430,460,463
36054,428,461,462
36055,434,462,460
36056,441,461,462
36057,449,461,461
36058,458,461,462
36059,462,461,462
36060,473,461,460
36061,480,459,462
36062,484,459,461
36063,488,460,461
36064,487,460,460
36065,486,462,460
36066,484,462,460
36067,478,461,461
36068,477,459,463
36069,474,461,461
36070,476,460,461
36071,479,461,462
36072,486,461,462
36073,488,459,462
36074,485,459,462
36075,482,461,462
36076,474,460,462
36077,457,459,461
36078,439,461,461
36079,425,459,462
36080,416,459,461
36081,418,460,463
36082,424,460,462
36083,439,462,462
36084,457,460,463
36085,477,461,463
36086,494,461,460
36087,508,459,461
36088,520,460,463
36089,524,460,463
36090,528,459,462
36091,525,462,460
36092,520,461,462
36093,512,459,461
36094,502,461,461
36095,493,460,463
36096,486,460,462
36097,484,461,461
36098,486,462,462
36099,495,461,462
36100,504,461,461
36101,508,461,461
36102,507,462,461
36103,508,461,462
36104,505,460,462
36105,506,459,462
36106,503,460,463
36107,500,460,461
36108,497,462,460
36109,495,458,463
36110,496,461,461
36111,505,460,461
36112,509,461,464
36113,521,462,462
36114,525,460,463
36115,529,461,460
36116,534,460,462
36117,537,459,463
36118,540,462,463
36119,540,461,463
36120,540,459,460
36121,537,459,462
36122,537,461,461
36123,535,462,462
36124,530,462,459
36125,529,459,462
36126,526,460,462
36127,525,461,461
36128,524,462,463
36129,526,461,462
36130,529,460,461
36131,532,462,462
36132,536,459,461
36133,539,461,461
36134,542,461,460
36135,544,462,461
36136,546,461,462
36137,547,462,463
36138,544,462,460
36139,544,461,462
36140,544,459,462
36141,544,459,461
36142,542,460,462
36143,540,457,462
36144,541,461,463
36145,537,459,462
36146,536,461,461
36147,539,460,461
36148,539,461,462
36149,536,459,462
36150,537,460,461
36151,538,461,461
36152,536,457,462
36153,536,460,462
36154,535,461,462
36155,533,461,462
36156,530,462,460
36157,527,462,461
36158,525,459,461
36159,523,460,463
36160,517,462,460
36161,513,461,462
36162,511,460,462
36163,506,462,462
36164,502,462,462
36165,502,460,460
36166,502,461,462
36167,505,462,463
36168,507,462,461
36169,511,461,462
36170,513,462,461
36171,517,457,461
36172,521,460,463
36173,522,462,462
36174,521,460,461
36175,519,460,463
36176,510,461,463
36177,502,460,459
36178,495,460,460
36179,485,461,461
36180,479,461,462
36181,477,462,461
36182,476,459,462
36183,480,461,461
36184,487,461,459
36185,494,461,460
36186,500,461,462
36187,508,460,462
36188,514,461,460
36189,517,461,462
36190,517,461,463
36191,522,461,460
36192,522,461,462
36193,521,460,462
36194,521,461,462
36195,521,462,461
36196,518,461,461
36197,518,461,462
36198,519,459,461
36199,516,459,461
36200,516,461,463
36201,517,462,459
36202,521,461,462
36203,523,460,462
36204,525,459,462
36205,527,462,463
36206,524,461,462
36207,529,460,463
36208,527,460,459
36209,530,460,461
36210,530,460,463
36211,530,461,459
36212,530,462,463
36213,526,460,462
36214,520,462,463
36215,514,461,461
36216,509,462,463
36217,502,460,458
36218,501,461,461
36219,499,460,462
36220,502,462,460
36221,505,460,462
36222,507,461,462
36223,512,462,462
36224,514,460,462
36225,517,461,462
36226,517,460,463
36227,521,459,463
36228,525,461,461
36229,530,460,463
36230,532,461,461
36231,533,461,461
36232,536,461,461
36233,537,457,461
36234,536,459,462
36235,537,459,462
36236,535,461,460
36237,534,461,461
36238,530,461,461
36239,526,458,462
36240,520,461,462
36241,515,461,459
36242,509,461,461
36243,506,459,462
36244,504,459,462
36245,501,460,462
36246,502,461,462
36247,504,462,461
36248,508,462,462
36249,511,458,461
36250,513,457,462
36251,515,460,461
36252,517,462,461
36253,515,461,459
36254,517,460,462
36255,519,460,461
36256,518,460,463
36257,517,460,462
36258,514,461,461
36259,510,458,463
36260,509,460,460
36261,505,463,461
36262,500,461,461
36263,496,457,459
36264,492,461,462
36265,486,459,461
36266,480,461,462
36267,473,460,462
36268,473,462,459
36269,475,462,460
36270,480,459,461
36271,484,459,461
36272,487,461,462
36273,489,460,462
36274,486,461,460
36275,485,461,460
36276,478,461,460
36277,472,462,461
36278,467,462,462
36279,466,459,461
36280,466,459,461
36281,467,460,462
36282,469,462,462
36283,473,462,461
36284,478,461,462
36285,481,460,462
36286,486,459,461
36287,490,460,460
36288,493,457,462
36289,497,459,462
36290,499,461,462
36291,501,461,463
36292,502,457,462
36293,504,460,462
36294,505,460,463
36295,502,462,462
36296,502,460,460
36297,499,461,461
36298,494,461,462
36299,490,457,461
36300,482,462,462
36301,477,461,460
36302,472,461,462
36303,465,460,462
36304,463,460,461
36305,458,460,462
36306,455,460,462
36307,453,461,463
36308,457,460,460
36309,459,461,462
36310,463,461,460
36311,469,459,463
36312,474,460,462
36313,477,461,462
36314,485,461,462
36315,488,462,462
36316,490,462,462
36317,491,459,460
36318,489,460,462
36319,484,460,462
36320,479,461,459
36321,477,462,460
36322,474,458,460
36323,473,460,462
36324,476,460,461
36325,476,459,462
36326,476,460,462
36327,479,461,462
36328,479,463,462
36329,484,459,461
36330,484,459,463
36331,483,462,462
36332,485,462,462
36333,485,460,461
36334,482,463,462
36335,479,460,462
36336,472,462,463
36337,469,460,459
36338,469,461,462
36339,468,458,461
36340,467,460,462
36341,467,461,461
36342,469,461,463
36343,467,462,463
36344,470,461,461
36345,470,456,462
36346,475,461,462
36347,473,461,461
36348,476,458,462
36349,476,461,461
36350,478,460,461
36351,480,461,463
36352,480,461,461
36353,480,460,459
36354,476,460,461
36355,472,457,461
36356,470,460,462
36357,467,460,462
36358,467,461,462
36359,462,461,462
36360,467,462,462
36361,468,458,461
36362,469,462,461
36363,469,460,458
36364,470,461,461
36365,470,460,461
36366,467,461,462
36367,463,461,459
36368,465,459,461
36369,465,460,461
36370,470,460,461
36371,478,461,461
36372,482,458,462
36373,488,460,461
36374,488,461,459
36375,490,462,459
36376,489,461,461
36377,490,459,462
36378,485,460,462
36379,483,460,462
36380,482,460,461
36381,480,460,462
36382,482,461,459
36383,484,460,461
36384,489,460,462
36385,490,459,461
36386,491,460,462
36387,494,461,461
36388,497,459,460
36389,501,460,461
36390,505,461,462
36391,503,460,461
36392,504,460,459
36393,501,460,461
36394,496,459,461
36395,494,459,459
36396,491,459,461
36397,492,458,462
36398,492,461,461
36399,493,462,462
36400,491,460,461
36401,491,461,462
36402,492,460,462
36403,488,460,463
36404,491,461,461
36405,491,462,461
36406,492,462,462
36407,496,459,461
36408,499,462,459
36409,505,461,461
36410,508,461,461
36411,511,461,461
36412,513,459,460
36413,516,460,461
36414,516,461,463
36415,514,462,461
36416,513,459,461
36417,504,459,461
36418,494,461,461
36419,477,460,460
36420,462,461,459
36421,452,461,463
36422,444,460,462
36423,447,462,463
36424,454,458,462
36425,463,459,462
36426,478,460,459
36427,488,461,458
36428,498,461,461
36429,504,462,461
36430,509,460,462
36431,512,458,460
36432,513,461,460
36433,519,460,460
36434,523,462,462
36435,524,460,461
36436,525,460,462
36437,525,460,462
36438,521,461,462
36439,515,460,461
36440,513,461,463
36441,508,457,461
36442,503,457,461
36443,496,460,463
36444,491,459,461
36445,486,460,461
36446,485,460,463
36447,488,459,462
36448,493,461,460
36449,501,461,463
36450,511,462,462
36451,515,460,460
36452,522,456,461
36453,525,457,461
36454,524,461,461
36455,522,461,464
36456,518,459,462
36457,517,459,463
36458,512,461,462
36459,509,459,463
36460,506,462,463
36461,507,461,461
36462,509,462,460
36463,510,461,462
36464,510,459,462
36465,513,461,462
36466,513,460,463
36467,520,460,461
36468,523,461,462
36469,526,460,462
36470,526,459,461
36471,526,461,462
36472,526,458,461
36473,526,460,461
36474,528,461,462
36475,528,461,461
36476,533,461,462
36477,533,459,462
36478,534,461,462
36479,533,461,461
36480,531,462,460
36481,531,459,463
36482,532,462,463
36483,530,460,462
36484,531,460,461
36485,529,461,461
36486,527,461,464
36487,528,462,462
36488,532,460,461
36489,527,461,463
36490,529,461,462
36491,528,458,462
36492,527,458,462
36493,521,460,463
36494,514,461,463
36495,506,462,460
36496,499,461,458
36497,499,460,462
36498,497,462,462
36499,498,458,461
36500,497,462,462
36501,496,461,458
36502,497,460,463
36503,495,461,460
36504,493,462,460
36505,492,460,460
36506,490,461,462
36507,496,459,461
36508,500,460,462
36509,504,459,462
36510,508,461,461
36511,513,461,462
36512,517,461,463
36513,521,461,461
36514,521,460,462
36515,518,461,463
36516,508,461,460
36517,500,460,461
36518,492,461,462
36519,487,461,463
36520,480,460,462
36521,482,462,461
36522,484,461,460
36523,487,458,463
36524,491,461,463
36525,491,461,463
36526,496,460,462
36527,495,460,462
36528,499,461,461
36529,500,462,461
36530,499,459,462
36531,501,460,461
36532,502,460,463
36533,502,461,461
36534,504,460,461
36535,504,461,462
36536,505,461,463
36537,502,459,462
36538,501,463,460
36539,498,461,460
36540,496,461,462
36541,491,460,459
36542,492,461,462
36543,490,460,462
36544,490,459,460
36545,493,461,461
36546,495,460,462
36547,498,461,462
36548,501,461,462
36549,503,460,462
36550,504,460,463
36551,504,460,463
36552,501,460,462
36553,493,460,461
36554,487,462,462
36555,479,458,462
36556,476,457,462
36557,472,464,460
36558,471,461,461
36559,470,462,463
36560,472,459,462
36561,476,457,461
36562,481,462,460
36563,484,461,462
36564,487,458,461
36565,492,461,464
36566,492,463,461
36567,495,460,462
36568,498,462,462
36569,500,460,462
36570,500,463,462
36571,498,461,462
36572,491,461,463
36573,488,462,463
36574,482,461,462
36575,477,461,462
36576,476,461,462
36577,476,459,461
36578,477,460,462
36579,476,461,459
36580,474,462,460
36581,470,462,461
36582,464,461,462
36583,457,460,462
36584,449,460,462
36585,441,461,464
36586,438,461,462
36587,439,461,461
36588,441,460,463
36589,447,460,459
36590,449,461,462
36591,458,462,462
36592,463,461,459
36593,468,461,463
36594,470,461,461
36595,470,461,463
36596,472,461,461
36597,467,462,462
36598,468,461,461
36599,466,459,462
36600,464,461,462
36601,462,461,460
36602,466,462,462
36603,468,460,462
36604,472,461,461
36605,478,461,460
36606,485,461,462
36607,488,458,462
36608,492,459,462
36609,494,461,459
36610,493,460,459
36611,492,461,462
36612,490,460,462
36613,489,462,462
36614,486,461,461
36615,488,462,460
36616,488,460,462
36617,488,459,461
36618,493,461,460
36619,497,461,461
36620,499,461,461
36621,502,459,461
36622,507,461,461
36623,508,462,462
36624,508,460,462
36625,508,461,461
36626,506,459,461
36627,507,461,461
36628,505,461,460
36629,510,462,461
36630,513,459,463
36631,514,460,459
36632,517,461,462
36633,518,462,459
36634,516,461,459
36635,512,461,461
36636,506,462,463
36637,502,462,460
36638,498,460,460
36639,495,462,462
36640,492,460,462
36641,485,460,462
36642,481,461,462
36643,482,462,462
36644,486,461,461
36645,485,461,462
36646,486,462,460
36647,489,461,461
36648,491,461,461
36649,492,461,463
36650,493,459,463
36651,494,460,462
36652,494,461,463
36653,493,461,463
36654,486,460,462
36655,480,461,461
36656,476,462,462
36657,478,462,463
36658,473,461,462
36659,474,462,461
36660,470,462,460
36661,470,461,461
36662,470,462,462
36663,472,460,460
36664,473,462,461
36665,478,462,462
36666,479,460,462
36667,481,462,462
36668,481,462,460
36669,483,461,464
36670,483,459,462
36671,485,461,461
36672,486,460,462
36673,486,460,460
36674,489,460,462
36675,490,461,462
36676,491,461,461
36677,491,460,460
36678,493,461,462
36679,491,461,462
36680,492,457,461
36681,491,461,460
36682,490,462,460
36683,487,461,462
36684,483,462,461
36685,479,460,461
36686,472,461,463
36687,470,462,462
36688,467,462,460
36689,468,462,461
36690,468,459,460
36691,470,462,462
36692,472,462,461
36693,476,461,461
36694,476,462,461
36695,477,461,459
36696,476,462,461
36697,474,460,462
36698,475,461,462
36699,472,461,462
36700,471,460,459
36701,469,460,462
36702,468,461,460
36703,465,462,460
36704,464,464,460
36705,463,459,464
36706,458,462,462
36707,458,461,461
36708,455,462,461
36709,455,458,462
36710,451,461,462
36711,449,462,458
36712,449,462,462
36713,447,461,462
36714,443,461,462
36715,441,460,462
36716,439,461,462
36717,438,459,463
36718,436,461,462
36719,434,461,461
36720,429,460,461
36721,426,457,462
36722,426,460,462
36723,422,460,463
36724,422,457,462
36725,421,460,460
36726,419,457,463
36727,416,459,461
36728,414,461,459
36729,416,462,460
36730,419,462,462
36731,422,460,463
36732,420,463,460
36733,417,460,460
36734,420,460,462
36735,419,461,461
36736,419,461,462
36737,419,462,461
36738,418,462,459
36739,420,459,461
36740,421,461,462
36741,425,460,461
36742,426,458,460
36743,428,461,460
36744,431,463,461
36745,432,461,463
36746,434,461,462
36747,434,460,463
36748,439,459,462
36749,442,462,460
36750,445,461,462
36751,445,462,461
36752,448,461,461
36753,448,461,460
36754,447,459,460
36755,444,459,462
36756,446,461,462
36757,446,460,461
36758,448,459,462
36759,447,461,461
36760,444,460,459
36761,443,461,462
36762,447,461,462
36763,443,462,462
36764,445,461,461
36765,446,460,463
36766,447,462,461
36767,448,459,461
36768,453,458,461
36769,452,461,459
36770,461,461,461
36771,461,461,462
36772,465,461,462
36773,467,459,462
36774,467,460,462
36775,468,461,464
36776,467,460,462
36777,470,459,461
36778,473,460,462
36779,471,460,463
36780,466,460,462
36781,468,461,462
36782,469,461,461
36783,468,462,462
36784,464,461,461
36785,463,461,461
36786,464,461,461
36787,462,459,463
36788,459,460,462
36789,462,460,460
36790,462,460,460
36791,464,460,462
36792,464,461,461
36793,465,461,461
36794,461,461,462
36795,463,461,461
36796,462,459,462
36797,464,460,461
36798,465,461,462
36799,464,461,461
36800,460,460,462
36801,455,460,462
36802,453,461,462
36803,457,460,462
36804,458,461,462
36805,457,459,461
36806,452,459,459
36807,450,461,459
36808,452,460,463
36809,454,458,462
36810,458,459,462
36811,460,461,462
36812,465,460,462
36813,468,460,462
36814,471,460,461
36815,472,458,462
36816,473,461,462
36817,473,461,461
36818,472,459,462
36819,472,459,463
36820,474,461,462
36821,474,461,462
36822,474,459,461
36823,472,461,462
36824,470,462,462
36825,469,460,462
36826,470,460,462
36827,470,460,462
36828,470,461,462
36829,470,461,460
36830,472,462,463
36831,476,461,461
36832,476,459,462
36833,476,461,459
36834,479,460,462
36835,474,460,462
36836,478,459,462
36837,475,461,460
36838,466,460,462
36839,467,461,462
36840,466,463,462
36841,465,460,462
36842,462,461,461
36843,461,458,461
36844,462,461,461
36845,461,459,461
36846,460,459,462
36847,461,461,463
36848,460,462,462
36849,463,461,462
36850,465,457,461
36851,465,461,460
36852,464,460,463
36853,459,461,462
36854,460,461,460
36855,460,459,461
36856,458,461,460
36857,459,462,461
36858,451,461,458
36859,451,461,460
36860,446,462,462
36861,445,461,461
36862,441,460,462
36863,444,461,460
36864,444,462,462
36865,443,461,463
36866,446,462,459
36867,448,461,463
36868,450,461,463
36869,452,456,462
36870,453,462,459
36871,454,461,462
36872,457,459,462
36873,455,461,464
36874,461,460,463
36875,460,462,462
36876,460,461,461
36877,460,461,461
36878,459,462,462
36879,455,462,463
36880,453,462,459
36881,454,459,462
36882,446,462,460
36883,450,461,461
36884,448,460,462
36885,444,462,461
36886,444,460,461
36887,448,460,463
36888,451,460,462
36889,452,462,462
36890,450,462,462
36891,446,460,462
36892,444,460,463
36893,442,461,461
36894,443,463,462
36895,444,460,462
36896,445,459,462
36897,445,461,463
36898,445,461,462
36899,448,457,462
36900,447,462,462
36901,448,461,462
36902,447,459,462
36903,449,461,461
36904,448,460,462
36905,444,460,460
36906,445,461,461
36907,446,461,459
36908,448,457,462
36909,451,460,462
36910,451,459,461
36911,453,461,460
36912,453,460,462
36913,451,460,462
36914,453,461,462
36915,450,461,462
36916,451,460,460
36917,451,460,463
36918,451,461,462
36919,451,458,462
36920,451,459,463
36921,450,462,461
36922,449,460,462
36923,448,463,462
36924,442,461,463
36925,440,461,462
36926,436,462,462
36927,434,461,460
36928,435,461,462
36929,430,461,463
36930,436,459,462
36931,435,460,461
36932,435,460,459
36933,437,462,462
36934,438,462,462
36935,439,461,462
36936,440,462,462
36937,441,461,462
36938,438,461,462
36939,439,460,463
36940,435,461,462
36941,433,460,462
36942,429,461,462
36943,426,461,463
36944,428,462,462
36945,426,461,462
36946,426,460,462
36947,430,460,462
36948,430,460,461
36949,432,461,460
36950,434,461,461
36951,437,460,462
36952,437,461,461
36953,435,461,461
36954,436,461,462
36955,435,462,461
36956,440,460,461
36957,438,457,464
36958,441,459,462
36959,440,460,461
36960,442,460,463
36961,439,461,462
36962,436,461,463
36963,436,460,462
36964,431,461,460
36965,429,461,460
36966,430,461,462
36967,426,460,461
36968,428,460,462
36969,427,458,463
36970,429,459,462
36971,429,462,461
36972,430,462,461
36973,433,461,459
36974,435,461,462
36975,436,461,464
36976,434,462,459
36977,435,459,462
36978,433,458,461
36979,430,462,462
36980,429,461,461
36981,428,462,462
36982,427,461,461
36983,428,460,462
36984,429,461,463
36985,427,461,462
36986,427,458,462
36987,428,459,462
36988,429,459,462
36989,426,462,462
36990,430,461,463
36991,430,461,461
36992,425,459,463
36993,426,461,462
36994,428,461,461
36995,428,460,461
36996,430,461,461
36997,432,462,461
36998,433,461,461
36999,434,462,461
37000,436,461,460
37001,436,461,460
37002,436,462,461
37003,436,460,463
37004,435,461,463
37005,435,461,463
37006,435,461,462
37007,436,462,462
37008,436,461,460
37009,438,462,462
37010,438,462,463
37011,434,461,460
37012,434,461,461
37013,431,461,461
37014,432,461,461
37015,433,462,463
37016,430,461,462
37017,430,462,459
37018,434,461,463
37019,433,462,462
37020,432,462,460
37021,433,458,462
37022,431,461,461
37023,430,462,461
37024,429,460,458
37025,430,461,462
37026,426,457,461
37027,427,461,462
37028,426,460,463
37029,426,460,462
37030,426,461,463
37031,432,462,462
37032,434,462,461
37033,437,461,462
37034,440,461,459
37035,444,461,462
37036,438,461,462
37037,434,460,461
37038,431,460,462
37039,425,457,462
37040,422,461,463
37041,420,461,462
37042,418,460,462
37043,418,462,461
37044,420,460,461
37045,421,460,463
37046,418,460,463
37047,419,461,462
37048,423,461,463
37049,425,460,463
37050,428,462,462
37051,432,459,461
37052,436,460,461
37053,439,462,462
37054,439,461,462
37055,440,460,463
37056,440,461,463
37057,435,461,460
37058,431,461,461
37059,431,462,461
37060,429,460,463
37061,427,459,462
37062,426,464,462
37063,423,462,463
37064,425,461,462
37065,426,460,461
37066,426,462,463
37067,423,461,462
37068,428,460,462
37069,427,460,462
37070,426,462,464
37071,428,458,461
37072,425,461,464
37073,423,461,464
37074,424,462,463
37075,422,462,462
37076,421,462,461
37077,419,461,461
37078,419,460,463
37079,422,461,462
37080,422,461,461
37081,423,461,462
37082,421,458,461
37083,423,461,463
37084,422,458,462
37085,423,463,461
37086,422,461,461
37087,424,462,460
37088,424,462,464
37089,425,463,461
37090,425,461,461
37091,425,462,462
37092,425,460,463
37093,426,462,462
37094,421,461,460
37095,421,461,462
37096,416,461,460
37097,414,462,463
37098,413,458,461
37099,412,460,463
37100,412,459,463
37101,413,460,461
37102,413,462,462
37103,413,462,463
37104,418,462,462
37105,425,461,461
37106,429,462,462
37107,433,461,462
37108,434,461,461
37109,434,461,462
37110,429,461,463
37111,428,462,462
37112,426,460,459
37113,424,460,462
37114,424,460,463
37115,424,462,462
37116,424,458,461
37117,422,461,463
37118,423,462,463
37119,424,460,461
37120,425,460,462
37121,423,461,462
37122,421,459,461
37123,415,460,461
37124,413,460,463
37125,412,462,463
37126,410,462,462
37127,409,461,462
37128,410,460,462
37129,408,461,462
37130,411,461,462
37131,411,462,462
37132,412,462,462
37133,412,460,462
37134,417,461,462
37135,417,458,461
37136,418,460,461
37137,422,462,462
37138,420,460,463
37139,423,461,461
37140,424,461,460
37141,424,459,462
37142,424,463,462
37143,422,462,459
37144,424,461,460
37145,422,462,461
37146,418,461,462
37147,421,458,461
37148,419,460,459
37149,420,461,462
37150,422,461,463
37151,423,460,462
37152,424,461,463
37153,421,460,463
37154,426,459,460
37155,426,460,461
37156,426,461,462
37157,425,460,461
37158,423,462,463
37159,422,461,462
37160,417,460,459
37161,418,461,463
37162,417,461,462
37163,415,461,462
37164,417,461,462
37165,417,460,461
37166,418,461,461
37167,421,459,462
37168,419,460,459
37169,421,460,460
37170,422,460,462
37171,426,461,463
37172,424,460,463
37173,424,461,462
37174,425,460,463
37175,424,461,460
37176,425,462,463
37177,426,461,462
37178,425,462,461
37179,425,461,462
37180,424,460,462
37181,428,460,462
37182,428,460,462
37183,428,460,461
37184,427,460,461
37185,425,460,462
37186,423,460,463
37187,423,460,461
37188,419,462,462
37189,420,459,461
37190,419,462,459
37191,422,459,461
37192,420,461,463
37193,423,458,462
37194,424,462,459
37195,425,461,459
37196,426,463,462
37197,427,460,461
37198,430,462,461
37199,432,461,461
37200,432,461,463
37201,435,459,462
37202,440,461,461
37203,441,460,462
37204,444,460,462
37205,443,460,461
37206,445,461,463
37207,439,461,461
37208,439,462,460
37209,438,462,460
37210,431,462,463
37211,431,461,463
37212,428,462,461
37213,428,462,461
37214,427,458,462
37215,427,459,462
37216,426,458,463
37217,429,460,461
37218,429,461,462
37219,430,461,462
37220,431,460,461
37221,430,458,461
37222,429,461,462
37223,429,462,463
37224,426,461,462
37225,429,461,463
37226,429,461,462
37227,427,462,463
37228,428,461,461
37229,426,462,461
37230,428,464,462
37231,429,458,461
37232,432,463,462
37233,437,461,463
37234,437,461,459
37235,443,461,461
37236,439,460,460
37237,440,462,462
37238,440,462,461
37239,439,462,461
37240,437,460,464
37241,433,459,461
37242,430,459,463
37243,428,461,462
37244,428,461,461
37245,429,462,461
37246,431,461,459
37247,431,462,461
37248,431,461,461
37249,435,462,463
37250,438,461,461
37251,440,463,461
37252,440,461,461
37253,433,461,463
37254,441,461,462
37255,439,459,461
37256,438,460,462
37257,435,457,461
37258,430,460,462
37259,427,459,463
37260,424,460,462
37261,427,460,462
37262,429,461,461
37263,432,460,460
37264,436,461,462
37265,436,458,463
37266,438,461,462
37267,441,462,463
37268,441,461,462
37269,441,462,463
37270,440,459,461
37271,437,461,461
37272,433,463,461
37273,430,461,463
37274,430,461,463
37275,429,459,461
37276,431,461,460
37277,435,462,461
37278,438,459,461
37279,438,462,463
37280,442,462,463
37281,445,461,462
37282,448,461,462
37283,447,461,462
37284,448,462,461
37285,447,461,462
37286,444,461,459
37287,443,462,461
37288,442,462,461
37289,440,460,461
37290,441,460,463
37291,440,461,463
37292,439,461,460
37293,445,461,462
37294,448,461,462
37295,451,461,463
37296,454,462,462
37297,455,460,461
37298,455,463,462
37299,459,462,461
37300,457,460,461
37301,452,462,462
37302,448,460,461
37303,442,462,462
37304,437,458,461
37305,433,461,460
37306,431,459,464
37307,428,459,462
37308,429,461,462
37309,429,461,462
37310,434,461,461
37311,442,461,463
37312,446,459,464
37313,451,461,461
37314,457,460,461
37315,460,462,460
37316,466,461,461
37317,468,461,462
37318,469,462,461
37319,467,462,462
37320,462,462,462
37321,457,459,462
37322,450,457,462
37323,445,461,462
37324,446,461,462
37325,444,461,463
37326,445,461,461
37327,446,458,462
37328,447,461,462
37329,447,460,462
37330,448,461,462
37331,446,460,462
37332,446,462,460
37333,446,460,461
37334,448,459,463
37335,451,460,462
37336,451,458,461
37337,453,461,462
37338,457,460,461
37339,459,462,461
37340,461,460,462
37341,465,461,462
37342,467,461,462
37343,468,460,462
37344,467,460,462
37345,464,460,460
37346,460,462,458
37347,457,461,460
37348,457,462,462
37349,456,461,463
37350,454,460,463
37351,451,461,461
37352,448,461,463
37353,454,460,463
37354,458,461,462
37355,461,461,463
37356,464,462,462
37357,466,462,461
37358,467,461,461
37359,467,459,462
37360,463,460,462
37361,461,461,462
37362,453,462,462
37363,450,460,461
37364,447,459,461
37365,443,462,463
37366,444,462,461
37367,444,463,460
37368,445,461,462
37369,446,462,462
37370,449,462,461
37371,451,461,463
37372,452,461,462
37373,455,460,461
37374,452,459,463
37375,451,461,461
37376,449,459,462
37377,451,461,462
37378,454,460,463
37379,455,462,461
37380,456,462,462
37381,464,462,461
37382,469,459,462
37383,470,461,461
37384,470,460,462
37385,463,462,463
37386,461,460,459
37387,454,462,463
37388,446,461,463
37389,445,460,463
37390,441,462,462
37391,443,460,463
37392,443,462,462
37393,440,461,463
37394,444,462,461
37395,446,460,462
37396,448,461,462
37397,449,461,462
37398,448,460,462
37399,448,461,463
37400,447,462,463
37401,444,460,459
37402,443,462,461
37403,438,461,463
37404,435,461,460
37405,436,459,462
37406,436,461,463
37407,436,462,462
37408,438,461,461
37409,441,462,461
37410,445,462,462
37411,450,459,462
37412,450,461,460
37413,451,460,461
37414,448,463,461
37415,445,461,462
37416,445,460,459
37417,448,461,460
37418,449,461,463
37419,452,460,461
37420,450,460,465
37421,452,462,459
37422,449,461,460
37423,443,460,461
37424,438,457,462
37425,434,462,462
37426,430,460,458
37427,428,459,462
37428,427,461,462
37429,431,460,462
37430,435,460,462
37431,438,461,462
37432,443,461,460
37433,448,461,460
37434,452,459,461
37435,455,461,461
37436,454,460,462
37437,453,462,463
37438,451,464,462
37439,449,460,461
37440,444,461,462
37441,440,461,461
37442,433,460,462
37443,430,462,462
37444,429,460,460
37445,430,461,463
37446,431,460,461
37447,437,462,460
37448,442,460,462
37449,447,459,461
37450,451,459,461
37451,451,462,462
37452,448,459,462
37453,443,461,453
37454,441,460,462
37455,436,458,462
37456,434,459,460
37457,429,460,461
37458,429,462,461
37459,429,459,462
37460,434,461,461
37461,439,460,462
37462,440,462,462
37463,446,460,462
37464,446,461,460
37465,446,462,460
37466,440,461,460
37467,433,460,462
37468,428,462,461
37469,424,462,462
37470,424,459,461
37471,424,460,461
37472,426,459,460
37473,429,461,460
37474,432,462,463
37475,435,460,461
37476,438,459,461
37477,441,460,462
37478,442,461,461
37479,440,462,458
37480,439,462,462
37481,439,461,463
37482,434,461,462
37483,436,461,461
37484,431,461,461
37485,429,461,461
37486,431,460,462
37487,437,461,462
37488,443,458,461
37489,453,461,459
37490,458,461,460
37491,460,460,461
37492,456,461,458
37493,450,460,461
37494,441,460,461
37495,440,457,461
37496,436,461,462
37497,434,462,461
37498,430,461,460
37499,427,462,464
37500,426,458,462
37501,426,460,463
37502,427,461,461
37503,429,460,462
37504,432,459,462
37505,429,460,463
37506,432,458,461
37507,431,461,463
37508,429,462,461
37509,429,459,462
37510,428,460,461
37511,427,460,462
37512,425,459,463
37513,427,461,461
37514,431,459,462
37515,434,462,460
37516,438,461,462
37517,436,461,461
37518,434,461,462
37519,429,461,461
37520,426,460,461
37521,425,461,463
37522,422,460,460
37523,420,460,463
37524,417,460,460
37525,418,460,462
37526,415,461,461
37527,417,461,462
37528,423,462,460
37529,427,462,461
37530,429,461,462
37531,427,459,461
37532,427,461,460
37533,426,460,462
37534,427,462,461
37535,425,460,461
37536,426,461,462
37537,422,459,462
37538,419,461,462
37539,416,462,461
37540,411,460,462
37541,408,462,462
37542,408,462,463
37543,404,460,463
37544,410,457,462
37545,410,461,463
37546,410,460,463
37547,406,461,462
37548,405,460,463
37549,403,461,460
