Time (ms),Bicep,Shoulder,Tricep
1102746,355,453,365
1102747,356,454,366
1102748,356,454,366
1102749,356,455,365
1102750,356,454,366
1102751,355,454,365
1102752,355,455,364
1102753,356,454,364
1102754,355,452,364
1102755,353,452,364
1102756,356,453,364
1102757,355,453,364
1102758,353,451,362
1102759,354,449,364
1102760,356,446,364
1102761,354,452,363
1102762,355,450,363
1102763,354,452,364
1102764,356,451,364
1102765,356,452,365
1102766,357,452,363
1102767,355,452,363
1102768,355,451,365
1102769,355,454,364
1102770,355,454,363
1102771,355,453,364
1102772,356,454,363
1102773,356,454,364
1102774,355,454,364
1102775,354,451,364
1102776,353,452,362
1102777,355,451,363
1102778,355,451,364
1102779,355,451,363
1102780,353,453,364
1102781,355,452,363
1102782,355,452,364
1102783,355,452,363
1102784,355,452,364
1102785,356,453,365
1102786,356,453,365
1102787,355,456,367
1102788,355,451,365
1102789,355,455,365
1102790,356,456,364
1102791,356,454,364
1102792,358,454,365
1102793,355,452,366
1102794,355,453,364
1102795,356,452,364
1102796,354,453,364
1102797,355,451,363
1102798,353,450,362
1102799,354,452,363
1102800,355,450,363
1102801,356,451,363
1102802,355,451,364
1102803,354,453,365
1102804,355,453,365
1102805,355,454,364
1102806,356,454,365
1102807,356,454,366
1102808,356,453,366
1102809,357,454,364
1102810,356,455,365
1102811,356,456,365
1102812,357,456,366
1102813,357,454,365
1102814,356,454,364
1102815,354,453,363
1102816,355,454,365
1102817,356,450,365
1102818,356,454,364
1102819,355,451,363
1102820,355,454,367
1102821,354,454,365
1102822,355,454,366
1102823,356,456,365
1102824,357,455,367
1102825,357,455,368
1102826,358,456,366
1102827,358,455,367
1102828,358,457,368
1102829,358,457,368
1102830,358,458,367
1102831,360,459,368
1102832,357,455,367
1102833,356,457,367
1102834,356,457,366
1102835,356,456,366
1102836,356,457,367
1102837,357,453,366
1102838,356,456,366
1102839,357,455,366
1102840,358,457,367
1102841,359,456,367
1102842,358,457,368
1102843,359,458,368
1102844,358,458,369
1102845,360,458,369
1102846,361,458,369
1102847,360,459,370
1102848,359,459,370
1102849,359,460,370
1102850,360,460,369
1102851,362,460,370
1102852,361,461,369
1102853,362,460,369
1102854,358,458,368
1102855,358,459,368
1102856,358,458,367
1102857,358,458,367
1102858,358,458,368
1102859,359,455,368
1102860,358,457,368
1102861,360,456,369
1102862,360,455,368
1102863,359,458,368
1102864,359,460,369
1102865,361,458,370
1102866,361,460,370
1102867,361,462,369
1102868,361,462,369
1102869,360,462,372
1102870,361,461,369
1102871,361,460,371
1102872,360,462,371
1102873,361,461,370
1102874,361,463,370
1102875,360,461,369
1102876,359,459,369
1102877,361,460,369
1102878,358,461,370
1102879,359,457,369
1102880,360,458,370
1102881,361,456,370
1102882,360,456,369
1102883,360,458,371
1102884,361,461,370
1102885,360,460,370
1102886,360,460,370
1102887,361,461,370
1102888,362,460,369
1102889,362,462,371
1102890,361,461,370
1102891,362,462,371
1102892,361,461,369
1102893,361,462,371
1102894,360,461,370
1102895,360,461,371
1102896,361,461,370
1102897,361,460,369
1102898,359,458,370
1102899,360,460,369
1102900,360,458,370
1102901,360,460,371
1102902,359,459,372
1102903,359,460,371
1102904,360,462,373
1102905,361,461,372
1102906,361,462,371
1102907,362,462,372
1102908,360,463,371
1102909,361,464,373
1102910,363,463,372
1102911,362,464,373
1102912,361,464,371
1102913,362,465,371
1102914,360,464,370
1102915,361,465,371
1102916,360,462,371
1102917,362,464,372
1102918,362,463,372
1102919,362,462,373
1102920,364,464,373
1102921,362,463,373
1102922,363,461,373
1102923,363,463,371
1102924,363,463,371
1102925,364,464,372
1102926,363,464,373
1102927,365,465,373
1102928,366,462,373
1102929,363,465,373
1102930,363,467,374
1102931,364,463,373
1102932,364,465,373
1102933,363,465,373
1102934,364,465,373
1102935,363,464,372
1102936,363,465,372
1102937,362,463,371
1102938,361,462,370
1102939,360,463,371
1102940,362,462,371
1102941,361,462,371
1102942,362,463,371
1102943,362,463,372
1102944,362,463,372
1102945,364,464,372
1102946,362,465,373
1102947,365,467,374
1102948,364,467,374
1102949,366,465,377
1102950,365,469,374
1102951,366,468,375
1102952,365,467,375
1102953,366,469,373
1102954,365,468,375
1102955,366,468,375
1102956,364,468,374
1102957,366,468,375
1102958,366,467,375
1102959,366,465,375
1102960,365,468,375
1102961,367,470,375
1102962,368,469,376
1102963,368,469,376
1102964,368,472,377
1102965,369,470,378
1102966,370,473,380
1102967,370,476,380
1102968,371,476,381
1102969,371,477,381
1102970,372,474,381
1102971,372,476,381
1102972,373,477,381
1102973,372,478,382
1102974,372,478,382
1102975,372,476,382
1102976,372,477,382
1102977,373,479,381
1102978,373,477,382
1102979,373,478,384
1102980,374,480,383
1102981,374,479,384
1102982,375,476,384
1102983,374,482,384
1102984,375,482,385
1102985,376,484,387
1102986,376,483,387
1102987,377,486,388
1102988,378,485,389
1102989,378,485,386
1102990,378,487,389
1102991,378,488,390
1102992,378,487,389
1102993,377,488,388
1102994,379,489,389
1102995,377,489,389
1102996,378,487,390
1102997,379,485,389
1102998,379,485,389
1102999,378,488,390
1103000,379,487,391
1103001,380,487,389
1103002,380,489,389
1103003,380,490,391
1103004,382,492,391
1103005,384,491,393
1103006,384,493,394
1103007,383,491,394
1103008,384,497,394
1103009,385,495,396
1103010,386,496,395
1103011,386,495,396
1103012,387,496,396
1103013,386,496,396
1103014,387,496,396
1103015,385,496,395
1103016,385,495,396
1103017,386,495,395
1103018,385,496,393
1103019,385,497,396
1103020,385,495,397
1103021,386,498,396
1103022,387,497,397
1103023,386,497,398
1103024,387,500,398
1103025,387,501,400
1103026,388,501,399
1103027,390,502,400
1103028,388,503,401
1103029,389,504,401
1103030,390,504,402
1103031,391,504,402
1103032,390,504,402
1103033,390,506,402
1103034,389,504,401
1103035,390,505,401
1103036,391,506,401
1103037,391,505,401
1103038,391,504,403
1103039,391,504,403
1103040,391,503,402
1103041,392,503,401
1103042,394,506,402
1103043,394,506,405
1103044,393,503,404
1103045,394,509,406
1103046,394,508,405
1103047,395,510,406
1103048,395,508,405
1103049,395,510,406
1103050,394,511,407
1103051,395,509,407
1103052,395,512,407
1103053,395,510,407
1103054,394,511,407
1103055,395,510,404
1103056,396,510,406
1103057,395,509,407
1103058,393,508,407
1103059,395,512,406
1103060,396,508,406
1103061,395,512,407
1103062,397,507,407
1103063,398,511,408
1103064,396,511,408
1103065,398,512,408
1103066,398,512,410
1103067,399,513,411
1103068,396,515,410
1103069,398,516,409
1103070,397,515,411
1103071,398,515,410
1103072,397,516,408
1103073,398,512,408
1103074,397,514,410
1103075,397,513,409
1103076,396,513,407
1103077,397,512,408
1103078,397,513,408
1103079,398,510,407
1103080,399,512,410
1103081,395,511,409
1103082,398,510,410
1103083,397,513,410
1103084,396,514,409
1103085,399,513,410
1103086,398,514,410
1103087,398,517,410
1103088,399,517,410
1103089,399,515,411
1103090,398,517,411
1103091,399,518,412
1103092,398,517,411
1103093,397,514,410
1103094,399,508,410
1103095,399,514,410
1103096,398,513,409
1103097,398,513,408
1103098,399,512,408
1103099,398,513,409
1103100,396,512,409
1103101,397,511,408
1103102,397,515,410
1103103,397,513,410
1103104,398,513,409
1103105,398,513,410
1103106,399,515,411
1103107,398,514,409
1103108,399,514,409
1103109,398,516,409
1103110,397,516,409
1103111,398,515,410
1103112,397,515,410
1103113,399,515,409
1103114,399,513,410
1103115,396,512,408
1103116,396,512,408
1103117,398,512,408
1103118,396,512,408
1103119,395,513,407
1103120,395,512,407
1103121,395,509,407
1103122,396,510,408
1103123,396,507,408
1103124,396,509,407
1103125,396,511,407
1103126,397,512,407
1103127,397,513,407
1103128,398,512,408
1103129,398,513,409
1103130,398,513,409
1103131,396,514,408
1103132,398,513,409
1103133,397,510,408
1103134,397,512,407
1103135,396,512,407
1103136,397,510,408
1103137,395,510,407
1103138,396,511,406
1103139,395,512,408
1103140,395,511,409
1103141,396,513,406
1103142,396,513,409
1103143,397,513,408
1103144,397,514,410
1103145,398,512,410
1103146,399,514,410
1103147,400,514,411
1103148,399,514,410
1103149,400,515,411
1103150,399,515,410
1103151,398,517,411
1103152,399,516,410
1103153,401,515,411
1103154,398,516,409
1103155,397,515,409
1103156,399,514,410
1103157,399,516,411
1103158,398,511,409
1103159,398,513,409
1103160,398,511,409
1103161,398,513,408
1103162,397,512,408
1103163,399,512,410
1103164,399,512,410
1103165,398,513,410
1103166,398,515,410
1103167,398,513,410
1103168,398,512,410
1103169,400,512,408
1103170,399,514,411
1103171,397,515,409
1103172,397,514,409
1103173,398,511,407
1103174,397,513,408
1103175,395,512,409
1103176,396,512,407
1103177,396,512,407
1103178,395,509,407
1103179,395,510,407
1103180,395,511,408
1103181,396,510,407
1103182,395,512,408
1103183,396,511,407
1103184,396,510,408
1103185,396,509,408
1103186,397,510,408
1103187,397,511,408
1103188,396,512,407
1103189,397,512,407
1103190,396,510,407
1103191,396,510,406
1103192,395,511,409
1103193,395,511,406
1103194,393,508,405
1103195,394,512,404
1103196,394,505,403
1103197,393,506,403
1103198,390,506,404
1103199,393,511,404
1103200,392,504,404
1103201,392,506,404
1103202,393,505,404
1103203,392,505,404
1103204,392,503,404
1103205,393,504,406
1103206,391,507,404
1103207,393,507,404
1103208,392,505,404
1103209,392,506,404
1103210,393,503,404
1103211,391,503,403
1103212,390,504,402
1103213,391,503,402
1103214,390,499,400
1103215,390,502,401
1103216,388,500,399
1103217,389,501,400
1103218,389,499,399
1103219,388,498,398
1103220,389,496,399
1103221,389,496,398
1103222,388,497,398
1103223,390,499,396
1103224,387,497,399
1103225,387,499,397
1103226,387,496,398
1103227,388,498,397
1103228,386,497,397
1103229,388,498,397
1103230,387,495,398
1103231,387,497,396
1103232,385,498,397
1103233,385,497,396
1103234,385,497,397
1103235,385,493,397
1103236,384,495,395
1103237,385,492,393
1103238,383,493,393
1103239,384,490,394
1103240,382,491,393
1103241,383,492,392
1103242,382,492,393
1103243,383,489,394
1103244,383,491,396
1103245,382,491,393
1103246,383,493,394
1103247,383,492,393
1103248,381,494,394
1103249,384,493,393
1103250,383,494,394
1103251,384,492,394
1103252,383,494,393
1103253,383,493,393
1103254,382,492,392
1103255,383,490,393
1103256,382,490,392
1103257,381,487,392
1103258,381,488,391
1103259,380,487,391
1103260,380,487,389
1103261,379,487,390
1103262,380,487,389
1103263,380,486,391
1103264,380,485,391
1103265,379,486,389
1103266,379,486,390
1103267,379,484,390
1103268,380,487,392
1103269,376,487,390
1103270,379,488,390
1103271,379,487,388
1103272,379,488,390
1103273,380,487,389
1103274,379,485,389
1103275,378,486,388
1103276,377,481,388
1103277,377,483,386
1103278,376,481,388
1103279,376,482,386
1103280,377,482,386
1103281,377,481,387
1103282,376,480,386
1103283,376,482,386
1103284,376,483,387
1103285,376,481,388
1103286,379,485,388
1103287,378,484,387
1103288,377,484,387
1103289,378,485,389
1103290,377,486,387
1103291,377,481,386
1103292,376,483,388
1103293,376,482,387
1103294,375,482,386
1103295,376,478,384
1103296,374,479,384
1103297,374,480,384
1103298,374,483,384
1103299,373,479,384
1103300,374,475,383
1103301,375,477,384
1103302,373,479,382
1103303,373,479,383
1103304,374,477,383
1103305,373,479,384
1103306,373,474,384
1103307,374,476,384
1103308,373,479,385
1103309,374,476,384
1103310,374,479,384
1103311,373,479,382
1103312,372,476,382
1103313,372,476,382
1103314,371,476,381
1103315,372,475,380
1103316,371,472,381
1103317,371,474,380
1103318,370,473,379
1103319,368,474,379
1103320,370,472,377
1103321,369,472,379
1103322,370,474,378
1103323,370,474,379
1103324,371,474,380
1103325,370,474,382
1103326,370,473,380
1103327,371,474,381
1103328,369,472,380
1103329,369,471,379
1103330,369,472,381
1103331,369,472,380
1103332,369,471,379
1103333,368,470,377
1103334,367,470,377
1103335,365,471,377
1103336,367,467,377
1103337,367,466,375
1103338,367,469,376
1103339,366,466,377
1103340,366,467,376
1103341,366,464,375
1103342,366,466,376
1103343,365,465,375
1103344,366,465,376
1103345,367,467,376
1103346,365,469,376
1103347,366,468,376
1103348,365,468,376
1103349,365,467,376
1103350,366,467,375
1103351,365,467,374
1103352,365,466,373
1103353,365,467,374
1103354,364,464,371
1103355,364,466,374
1103356,361,464,371
1103357,362,464,371
1103358,361,463,371
1103359,360,464,371
1103360,362,462,373
1103361,361,462,369
1103362,362,461,371
1103363,362,461,372
1103364,362,461,372
1103365,362,462,372
1103366,363,464,372
1103367,363,465,373
1103368,362,466,371
1103369,363,465,371
1103370,363,464,371
1103371,361,464,372
1103372,362,463,370
1103373,364,460,372
1103374,363,462,370
1103375,361,462,371
1103376,361,460,370
1103377,362,459,369
1103378,360,460,371
1103379,358,459,369
1103380,358,460,368
1103381,358,459,369
1103382,359,458,369
1103383,360,457,369
1103384,360,459,370
1103385,358,458,369
1103386,360,460,370
1103387,360,461,371
1103388,362,461,369
1103389,359,460,369
1103390,360,462,370
1103391,361,460,369
1103392,361,458,369
1103393,360,456,368
1103394,360,458,369
1103395,358,458,368
1103396,357,457,367
1103397,358,456,366
1103398,358,456,367
1103399,357,458,366
1103400,358,457,366
1103401,357,453,366
1103402,357,456,366
1103403,355,457,367
1103404,358,455,368
1103405,358,455,368
1103406,358,452,368
1103407,357,459,367
1103408,357,457,368
1103409,358,457,368
1103410,359,455,367
1103411,359,458,366
1103412,359,458,368
1103413,357,454,367
1103414,357,454,366
1103415,358,455,366
1103416,358,456,367
1103417,357,455,366
1103418,357,456,367
1103419,357,456,367
1103420,355,454,367
1103421,357,455,366
1103422,357,453,366
1103423,359,456,367
1103424,356,454,366
1103425,355,455,367
1103426,358,455,366
1103427,358,456,367
1103428,357,456,365
1103429,357,457,366
1103430,356,456,366
1103431,357,457,366
1103432,355,453,365
1103433,357,455,365
1103434,356,452,366
1103435,355,449,366
1103436,355,450,365
1103437,355,453,363
1103438,354,450,362
1103439,354,450,364
1103440,354,451,363
1103441,353,450,364
1103442,355,449,364
1103443,355,452,364
1103444,354,451,363
1103445,354,450,363
1103446,356,452,366
1103447,355,453,365
1103448,355,451,365
1103449,355,455,364
1103450,356,453,363
1103451,355,450,364
1103452,352,451,365
1103453,354,451,364
1103454,353,449,362
1103455,351,450,362
1103456,353,450,362
1103457,352,449,362
1103458,353,448,362
1103459,351,447,359
1103460,352,447,359
1103461,352,444,360
1103462,351,443,359
1103463,350,446,361
1103464,352,445,361
1103465,353,446,361
1103466,352,447,363
1103467,354,448,362
1103468,351,446,362
1103469,354,449,360
1103470,352,449,362
1103471,353,447,362
1103472,350,447,359
1103473,351,446,359
1103474,351,446,360
1103475,350,442,359
1103476,349,446,358
1103477,350,445,357
1103478,349,444,357
1103479,348,444,358
1103480,347,443,357
1103481,347,441,356
1103482,347,441,357
1103483,347,442,357
1103484,347,442,357
1103485,347,439,357
1103486,349,443,359
1103487,348,442,356
1103488,348,442,357
1103489,349,442,357
1103490,349,440,357
1103491,348,441,356
1103492,348,440,357
1103493,347,442,357
1103494,347,441,356
1103495,347,440,356
1103496,346,440,355
1103497,346,439,356
1103498,346,439,354
1103499,346,435,355
1103500,346,437,355
1103501,346,439,353
1103502,346,440,354
1103503,346,438,355
1103504,345,439,355
1103505,347,437,356
1103506,347,439,355
1103507,346,437,356
1103508,346,439,355
1103509,345,439,355
1103510,344,439,353
1103511,345,438,354
1103512,345,438,353
1103513,345,438,353
1103514,345,438,353
1103515,343,437,354
1103516,344,438,352
1103517,344,436,352
1103518,343,437,350
1103519,343,435,351
1103520,342,437,350
1103521,343,435,351
1103522,344,435,351
1103523,344,435,351
1103524,341,435,352
1103525,343,436,350
1103526,343,437,351
1103527,344,437,352
1103528,344,435,353
1103529,344,436,352
1103530,344,435,352
1103531,343,435,352
1103532,344,435,352
1103533,342,435,351
1103534,341,434,351
1103535,341,433,349
1103536,340,432,349
1103537,342,433,349
1103538,341,429,348
1103539,340,431,348
1103540,342,432,349
1103541,340,429,348
1103542,339,429,349
1103543,341,431,348
1103544,340,431,349
1103545,340,432,348
1103546,340,432,349
1103547,341,432,349
1103548,340,433,349
1103549,340,430,347
1103550,340,432,349
1103551,339,432,348
1103552,337,431,348
1103553,339,432,347
1103554,339,432,347
1103555,338,432,348
1103556,340,430,347
1103557,340,429,348
1103558,339,429,348
1103559,337,428,347
1103560,338,429,346
1103561,340,427,347
1103562,339,428,347
1103563,338,428,346
1103564,340,429,346
1103565,338,430,347
1103566,339,428,348
1103567,338,430,346
1103568,338,430,347
1103569,339,429,348
1103570,339,427,346
1103571,340,430,348
1103572,339,426,346
1103573,338,426,347
1103574,338,427,346
1103575,338,428,345
1103576,337,426,345
1103577,338,427,345
1103578,335,425,345
1103579,337,425,345
1103580,335,426,345
1103581,336,426,344
1103582,335,425,344
1103583,337,426,344
1103584,338,427,345
1103585,336,427,345
1103586,337,426,345
1103587,338,426,346
1103588,338,429,346
1103589,338,429,345
1103590,337,429,345
1103591,337,428,346
1103592,336,429,344
1103593,336,428,344
1103594,337,427,345
1103595,337,427,345
1103596,336,425,344
1103597,335,425,343
1103598,336,424,343
1103599,335,422,344
1103600,336,424,344
1103601,336,427,343
1103602,335,426,344
1103603,335,423,345
1103604,335,423,345
1103605,338,426,345
1103606,335,426,345
1103607,335,425,345
1103608,336,426,345
1103609,336,427,344
1103610,338,427,346
1103611,336,427,345
1103612,336,428,343
1103613,337,427,343
1103614,336,425,343
1103615,334,425,343
1103616,336,425,344
1103617,335,425,344
1103618,335,423,343
1103619,335,424,343
1103620,335,423,342
1103621,335,423,342
1103622,335,423,344
1103623,335,424,344
1103624,336,427,343
1103625,336,423,344
1103626,337,426,344
1103627,337,425,345
1103628,337,427,345
1103629,335,428,344
1103630,338,427,345
1103631,338,428,345
1103632,336,428,345
1103633,336,426,344
1103634,336,425,343
1103635,334,426,342
1103636,335,425,343
1103637,335,425,342
1103638,335,425,344
1103639,337,424,343
1103640,335,425,344
1103641,335,422,345
1103642,334,423,345
1103643,335,425,345
1103644,336,424,344
1103645,336,425,345
1103646,336,426,345
1103647,334,426,345
1103648,335,427,343
1103649,336,425,346
1103650,338,426,344
1103651,336,428,344
1103652,337,427,346
1103653,338,425,345
1103654,337,426,345
1103655,337,428,346
1103656,336,428,345
1103657,336,427,343
1103658,337,427,344
1103659,336,427,345
1103660,335,424,345
1103661,336,426,344
1103662,335,427,345
1103663,338,426,346
1103664,337,428,346
1103665,338,428,345
1103666,338,430,348
1103667,339,429,348
1103668,339,432,348
1103669,339,432,347
1103670,340,431,350
1103671,340,432,347
1103672,340,432,347
1103673,340,428,347
1103674,339,431,348
1103675,339,430,348
1103676,339,432,348
1103677,339,429,347
1103678,339,430,347
1103679,338,429,346
1103680,337,429,346
1103681,339,428,348
1103682,339,430,348
1103683,339,430,348
1103684,338,430,347
1103685,339,431,345
1103686,339,431,348
1103687,339,431,348
1103688,339,431,349
1103689,341,428,350
1103690,340,429,349
1103691,341,431,348
1103692,340,428,348
1103693,339,429,347
1103694,339,430,346
1103695,340,427,347
1103696,339,428,346
1103697,340,430,347
1103698,337,431,346
1103699,339,427,347
1103700,339,429,346
1103701,339,429,348
1103702,339,429,348
1103703,340,429,347
1103704,339,430,346
1103705,340,431,348
1103706,340,429,348
1103707,340,432,348
1103708,341,432,349
1103709,342,432,350
1103710,340,434,350
1103711,340,434,350
1103712,341,432,349
1103713,341,430,349
1103714,340,432,348
1103715,341,430,349
1103716,342,432,349
1103717,339,430,348
1103718,339,431,345
1103719,340,430,348
1103720,342,437,347
1103721,339,428,349
1103722,340,431,348
1103723,340,430,348
1103724,342,432,349
1103725,340,431,349
1103726,340,431,350
1103727,341,432,350
1103728,342,433,350
1103729,341,435,351
1103730,342,436,351
1103731,341,432,350
1103732,341,435,350
1103733,341,432,351
1103734,342,436,350
1103735,342,434,350
1103736,341,435,350
1103737,343,435,350
1103738,341,434,349
1103739,342,435,351
1103740,342,433,350
1103741,340,431,349
1103742,340,434,351
1103743,341,434,351
1103744,341,432,352
1103745,341,433,351
1103746,342,434,351
1103747,342,436,352
1103748,342,435,351
1103749,341,435,350
1103750,342,436,351
1103751,342,435,351
1103752,342,435,350
1103753,342,436,351
1103754,341,436,350
1103755,342,432,350
1103756,341,434,349
1103757,343,434,349
1103758,342,434,349
1103759,342,434,349
1103760,341,431,349
1742212345148,NEW REP,,
1103761,342,435,350
1103762,341,434,351
1103763,343,435,352
1103764,343,431,352
1103765,343,434,352
1103766,344,436,352
1103767,344,436,351
1103768,343,438,355
1103769,343,437,353
1103770,344,439,353
1103771,344,439,353
1103772,344,440,354
1103773,346,439,355
1103774,345,438,354
1103775,344,438,354
1103776,346,437,354
1103777,344,434,353
1103778,344,437,353
1103779,345,438,353
1103780,343,439,353
1103781,346,438,355
1103782,345,437,354
1103783,344,437,353
1103784,344,439,354
1103785,346,436,355
1103786,347,439,355
1103787,346,440,355
1103788,347,437,356
1103789,347,440,356
1103790,345,441,355
1103791,348,440,355
1103792,347,442,355
1103793,348,444,354
1103794,346,440,353
1103795,345,440,354
1103796,345,439,355
1103797,344,439,352
1103798,343,438,353
1103799,344,437,353
1103800,345,438,354
1103801,346,438,354
1103802,346,439,354
1103803,346,437,356
1103804,347,443,354
1103805,348,443,357
1103806,349,444,355
1103807,349,445,358
1103808,348,446,359
1103809,350,446,359
1103810,349,447,359
1103811,351,446,358
1103812,350,446,357
1103813,350,446,358
1103814,350,447,357
1103815,348,447,358
1103816,349,447,357
1103817,350,448,358
1103818,351,447,359
1103819,350,447,359
1103820,352,448,360
1103821,351,449,361
1103822,352,450,363
1103823,352,450,363
1103824,354,452,362
1103825,353,451,364
1103826,355,454,365
1103827,357,455,365
1103828,358,457,367
1103829,360,459,368
1103830,359,458,368
1103831,359,463,369
1103832,361,464,372
1103833,361,464,371
1103834,362,464,371
1103835,362,461,371
1103836,362,461,371
1103837,362,461,370
1103838,359,457,369
1103839,357,454,366
1103840,357,454,366
1103841,357,454,366
1103842,356,452,366
1103843,357,456,365
1103844,359,455,367
1103845,360,457,368
1103846,358,458,368
1103847,358,457,368
1103848,358,458,367
1103849,359,457,368
1103850,358,456,367
1103851,357,454,366
1103852,357,452,365
1103853,354,452,366
1103854,355,450,365
1103855,353,450,363
1103856,353,447,362
1103857,350,449,362
1103858,352,446,358
1103859,350,445,359
1103860,350,444,360
1103861,351,443,359
1103862,349,443,356
1103863,350,443,358
1103864,347,445,359
1103865,349,446,360
1103866,349,447,358
1103867,350,448,359
1103868,351,448,359
1103869,354,449,362
1103870,352,450,362
1103871,353,450,360
1103872,354,448,361
1103873,353,449,362
1103874,350,448,359
1103875,353,448,361
1103876,351,448,359
1103877,352,449,359
1103878,351,449,360
1103879,352,449,362
1103880,353,450,362
1103881,351,449,362
1103882,354,449,362
1103883,354,452,364
1103884,354,448,364
1103885,354,450,364
1103886,354,447,363
1103887,354,451,364
1103888,354,449,362
1103889,353,448,364
1103890,352,450,362
1103891,353,450,362
1103892,351,452,363
1103893,351,451,359
1103894,352,450,361
1103895,354,451,362
1103896,353,452,362
1103897,352,451,363
1103898,353,449,362
1103899,352,448,364
1103900,353,449,362
1103901,352,447,362
1103902,350,448,362
1103903,353,447,360
1103904,351,447,360
1103905,352,448,362
1103906,353,445,360
1103907,352,444,361
1103908,351,448,361
1103909,352,452,361
1103910,354,453,364
1103911,356,455,365
1103912,359,461,366
1103913,356,462,367
1103914,360,464,369
1103915,360,462,368
1103916,361,462,370
1103917,360,459,368
1103918,359,457,368
1103919,358,455,367
1103920,357,455,367
1103921,356,452,366
1103922,357,451,366
1103923,357,454,364
1103924,355,449,364
1103925,355,452,365
1103926,356,452,365
1103927,355,452,365
1103928,355,451,363
1103929,356,454,365
1103930,357,456,365
1103931,357,453,364
1103932,356,452,364
1103933,356,453,363
1103934,354,450,361
1103935,351,448,362
1103936,351,445,359
1103937,349,443,358
1103938,349,440,358
1103939,347,437,354
1103940,344,436,353
1103941,344,434,353
1103942,344,432,354
1103943,343,431,352
1103944,343,431,350
1103945,341,434,350
1103946,341,434,351
1103947,343,436,351
1103948,343,436,351
1103949,345,440,353
1103950,346,443,355
1103951,347,443,356
1103952,347,446,357
1103953,349,449,359
1103954,351,449,359
1103955,351,448,360
1103956,351,446,360
1103957,351,445,358
1103958,349,445,358
1103959,349,442,358
1103960,350,443,357
1103961,348,443,358
1103962,348,443,357
1103963,349,442,358
1103964,348,442,358
1103965,347,437,357
1103966,346,440,357
1103967,347,436,355
1103968,345,437,355
1103969,345,436,353
1103970,344,435,353
1103971,343,432,351
1103972,340,433,349
1103973,341,435,350
1103974,342,438,351
1103975,344,439,352
1103976,344,442,353
1103977,344,439,355
1103978,344,442,353
1103979,345,439,354
1103980,343,435,354
1103981,344,435,353
1103982,345,434,353
1103983,343,434,352
1103984,344,437,353
1103985,345,438,354
1103986,345,439,354
1103987,345,438,354
1103988,345,434,354
1103989,344,434,353
1103990,343,436,351
1103991,342,435,351
1103992,341,433,350
1103993,340,431,349
1103994,340,432,350
1103995,339,427,348
1103996,341,431,348
1103997,340,431,348
1103998,339,434,350
1103999,342,435,350
1104000,344,439,351
1104001,345,441,352
1104002,346,442,354
1104003,347,439,356
1104004,346,440,356
1104005,345,436,352
1104006,345,434,353
1104007,342,430,352
1104008,339,427,349
1104009,340,427,347
1104010,337,427,345
1104011,336,423,344
1104012,337,428,345
1104013,335,426,344
1104014,334,425,343
1104015,336,424,343
1104016,335,423,343
1104017,334,423,343
1104018,335,423,343
1104019,336,425,344
1104020,334,426,343
1104021,333,425,344
1104022,335,426,344
1104023,336,428,343
1104024,337,429,346
1104025,338,426,347
1104026,340,429,347
1104027,340,434,349
1104028,340,436,351
1104029,341,436,351
1104030,344,437,351
1104031,344,439,352
1104032,343,438,353
1104033,343,436,352
1104034,343,436,353
1104035,344,436,353
1104036,342,434,352
1104037,342,433,349
1104038,341,430,349
1104039,340,427,348
1104040,341,428,348
1104041,338,428,347
1104042,337,426,346
1104043,337,429,346
1104044,337,426,346
1104045,338,423,346
1104046,338,427,345
1104047,336,427,346
1104048,338,429,347
1104049,337,431,346
1104050,339,432,346
1104051,339,432,347
1104052,339,432,348
1104053,340,431,346
1104054,338,428,348
1104055,339,429,346
1104056,339,430,345
1104057,339,432,347
1104058,339,435,348
1104059,342,437,351
1104060,343,440,352
1104061,345,440,355
1104062,346,441,355
1104063,347,443,356
1104064,347,441,356
1104065,350,441,356
1104066,347,442,356
1104067,347,440,356
1104068,346,440,356
1104069,346,440,356
1104070,344,437,355
1104071,345,437,353
1104072,344,435,350
1104073,343,432,350
1104074,341,433,348
1104075,340,431,348
1104076,340,431,349
1104077,340,431,348
1104078,339,430,347
1104079,340,432,349
1104080,341,433,350
1104081,342,433,350
1104082,343,434,349
1104083,343,434,352
1104084,344,440,352
1104085,345,440,354
1104086,346,442,355
1104087,346,442,357
1104088,346,442,357
1104089,347,443,358
1104090,348,445,356
1104091,348,444,358
1104092,349,445,357
1104093,350,444,357
1104094,350,443,357
1104095,348,442,355
1104096,346,438,355
1104097,346,435,354
1104098,344,435,353
1104099,344,434,352
1104100,342,436,352
1104101,345,436,352
1104102,345,440,353
1104103,346,440,353
1104104,347,443,355
1104105,348,442,357
1104106,347,440,356
1104107,347,438,356
1104108,345,436,353
1104109,344,431,351
1104110,344,432,351
1104111,342,434,350
1104112,343,431,349
1104113,342,430,349
1104114,339,431,350
1104115,341,433,349
1104116,339,431,347
1104117,340,430,347
1104118,339,429,347
1104119,339,428,346
1104120,338,427,347
1104121,338,428,347
1104122,338,430,347
1104123,339,429,346
1104124,339,424,347
1104125,340,433,348
1104126,341,435,351
1104127,343,440,354
1104128,346,441,355
1104129,346,446,356
1104130,347,446,357
1104131,349,445,358
1104132,348,445,357
1104133,348,444,357
1104134,348,442,358
1104135,347,440,356
1104136,345,439,354
1104137,345,438,355
1104138,346,441,352
1104139,346,436,354
1104140,345,438,353
1104141,345,438,354
1104142,345,440,354
1104143,346,441,357
1104144,349,443,356
1104145,348,445,358
1104146,350,448,358
1104147,350,448,360
1104148,351,446,360
1104149,351,449,360
1104150,351,446,360
1104151,351,445,359
1104152,350,444,358
1104153,350,443,357
1104154,349,442,357
1104155,348,443,357
1104156,347,443,355
1104157,350,444,357
1104158,348,443,358
1104159,349,441,356
1104160,347,440,356
1104161,348,441,355
1104162,344,441,356
1104163,348,442,357
1104164,349,444,358
1104165,351,449,360
1104166,351,448,361
1104167,352,449,361
1104168,353,449,361
1104169,351,450,362
1104170,352,451,361
1104171,352,450,361
1104172,353,449,361
1104173,354,451,361
1104174,354,451,361
1104175,353,453,362
1104176,354,452,362
1104177,353,449,361
1104178,352,446,360
1104179,352,445,359
1104180,350,444,359
1104181,349,443,358
1104182,349,442,358
1104183,348,440,358
1104184,348,440,357
1104185,347,442,357
1104186,349,443,358
1104187,351,444,359
1104188,351,447,359
1104189,351,448,360
1104190,353,449,360
1104191,352,448,360
1104192,351,447,360
1104193,350,444,360
1104194,348,442,357
1104195,348,437,355
1104196,345,433,353
1104197,341,431,351
1104198,339,431,348
1104199,341,426,347
1104200,339,428,346
1104201,339,430,347
1104202,338,427,348
1104203,339,430,347
1104204,340,431,348
1104205,339,431,347
1104206,341,434,350
1104207,342,437,352
1104208,343,438,352
1104209,344,440,354
1104210,346,441,355
1104211,345,441,354
1104212,345,442,355
1104213,345,439,353
1104214,346,438,354
1104215,347,437,353
1104216,345,433,351
1104217,344,435,352
1104218,342,436,352
1104219,344,440,352
1104220,344,438,354
1104221,347,440,354
1104222,347,442,354
1104223,347,442,355
1104224,348,442,357
1104225,347,444,357
1104226,349,448,359
1104227,352,448,359
1104228,353,450,363
1104229,352,452,362
1104230,354,449,361
1104231,353,449,362
1104232,352,449,361
1104233,351,446,361
1104234,349,445,358
1104235,350,443,357
1104236,348,442,357
1104237,346,441,357
1104238,347,440,355
1104239,347,440,355
1104240,346,437,356
1104241,347,438,354
1104242,345,434,353
1104243,344,435,352
1104244,345,435,351
1104245,343,433,352
1104246,341,432,351
1104247,342,434,350
1104248,342,433,351
1104249,343,434,351
1104250,343,433,350
1104251,341,436,349
1104252,343,438,350
1104253,342,435,351
1104254,344,439,352
1104255,344,441,353
1104256,345,445,353
1104257,348,450,358
1104258,350,453,359
1104259,352,455,363
1104260,354,456,364
1104261,355,453,365
1104262,356,449,365
1104263,353,445,363
1104264,350,442,361
1104265,351,440,358
1104266,349,439,357
1104267,349,435,356
1104268,347,437,355
1104269,346,435,356
1104270,345,438,355
1104271,344,438,354
1104272,345,435,353
1104273,345,437,351
1104274,343,433,351
1104275,342,433,349
1104276,342,431,350
1104277,340,432,351
1104278,340,430,348
1104279,340,430,347
1104280,340,429,349
1104281,339,430,350
1104282,340,431,349
1104283,340,429,349
1104284,339,431,349
1104285,340,429,349
1104286,341,431,349
1104287,340,434,349
1104288,341,433,349
1104289,343,435,351
1104290,344,437,351
1104291,344,441,352
1104292,345,444,354
1104293,348,449,356
1104294,351,455,359
1104295,353,460,362
1104296,356,458,366
1104297,355,458,365
1104298,357,458,366
1104299,357,457,365
1104300,357,454,367
1104301,353,448,363
1104302,354,444,364
1104303,353,445,363
1104304,354,449,363
1104305,351,448,361
1104306,354,448,361
1104307,353,447,361
1104308,353,446,363
1104309,350,448,362
1104310,350,448,360
1104311,349,445,359
1104312,348,443,357
1104313,347,441,358
1104314,347,440,355
1104315,346,439,353
1104316,345,435,352
1104317,344,437,352
1104318,343,436,351
1104319,343,435,353
1104320,342,438,351
1104321,344,437,353
1104322,344,434,353
1104323,344,439,353
1104324,346,444,355
1104325,349,448,360
1104326,352,454,361
1104327,355,457,363
1104328,354,452,366
1104329,357,459,367
1104330,356,456,367
1104331,356,454,365
1104332,355,449,363
1104333,352,443,360
1104334,350,443,360
1104335,347,441,358
1104336,347,439,355
1104337,345,438,354
1104338,345,436,353
1104339,343,436,352
1104340,343,436,353
1104341,344,440,354
1104342,346,441,355
1104343,347,439,356
1104344,347,441,357
1104345,347,444,355
1104346,348,442,357
1104347,347,439,356
1104348,348,440,358
1104349,348,446,358
1104350,350,446,359
1104351,350,448,359
1104352,352,448,359
1104353,350,447,360
1104354,349,444,358
1104355,349,444,358
1104356,349,442,356
1104357,347,439,355
1104358,345,440,352
1104359,345,435,354
1104360,345,437,353
1104361,346,436,353
1104362,345,439,354
1104363,346,442,355
1104364,346,442,355
1104365,347,445,356
1104366,350,445,358
1104367,349,448,359
1104368,350,444,359
1104369,351,448,362
1104370,351,448,360
1104371,351,452,361
1104372,351,450,362
1104373,353,451,362
1104374,353,450,363
1104375,353,451,361
1104376,352,447,361
1104377,351,445,360
1104378,349,445,360
1104379,349,446,358
1104380,349,443,358
1104381,351,449,361
1104382,351,452,360
1104383,354,450,363
1104384,354,453,364
1104385,353,452,364
1104386,355,451,365
1104387,354,446,364
1104388,354,447,363
1104389,353,447,362
1104390,353,449,362
1104391,353,448,362
1104392,354,451,362
1104393,353,454,363
1104394,356,454,362
1104395,355,454,365
1104396,356,455,363
1104397,357,454,364
1104398,355,453,364
1104399,356,452,363
1104400,354,449,364
1104401,354,447,363
1104402,351,446,362
1104403,352,443,360
1104404,351,447,361
1104405,353,448,360
1104406,353,450,361
1104407,352,454,363
1104408,355,455,365
1104409,356,458,367
1104410,359,458,368
1104411,359,460,367
1104412,360,459,369
1104413,359,457,368
1104414,358,457,366
1104415,356,453,367
1104416,356,452,365
1104417,355,451,364
1104418,354,448,363
1104419,351,446,362
1104420,351,446,362
1104421,352,448,361
1104422,351,448,361
1104423,354,450,362
1104424,353,452,364
1104425,355,453,364
1104426,356,451,365
1104427,355,455,366
1104428,357,453,365
1104429,356,454,366
1104430,356,452,364
1104431,356,453,364
1104432,356,450,364
1104433,356,453,364
1104434,354,453,363
1104435,354,454,362
1104436,355,455,364
1104437,356,459,365
1104438,357,461,367
1104439,360,464,369
1104440,362,464,370
1104441,363,467,374
1104442,363,470,374
1104443,365,472,375
1104444,366,467,377
1104445,367,469,377
1104446,367,467,377
1104447,364,462,376
1104448,363,459,371
1104449,361,452,369
1104450,360,455,369
1104451,357,456,366
1104452,358,454,366
1104453,358,456,366
1104454,356,457,365
1104455,356,454,366
1104456,357,455,366
1104457,356,454,364
1104458,356,456,365
1104459,355,453,366
1104460,356,453,365
1104461,355,451,365
1104462,353,450,364
1104463,354,449,362
1104464,355,453,365
1104465,357,461,368
1104466,360,466,372
1104467,364,471,374
1104468,368,474,377
1104469,368,476,379
1104470,369,473,378
1104471,366,465,377
1104472,365,461,374
1104473,361,459,372
1104474,361,456,369
1104475,360,457,369
1104476,359,457,369
1104477,359,458,367
1104478,356,456,366
1104479,357,454,367
1104480,356,455,365
1104481,356,451,364
1104482,355,452,364
1104483,353,451,364
1104484,353,448,363
1104485,355,448,363
1104486,354,450,363
1104487,355,454,364
1104488,355,457,366
1104489,358,460,367
1104490,358,462,368
1104491,360,465,370
1104492,362,467,373
1104493,363,469,373
1104494,364,465,372
1104495,362,459,374
1104496,362,459,371
1104497,361,460,371
1104498,360,458,370
1104499,360,461,369
1104500,361,464,372
1104501,362,467,374
1104502,364,469,373
1104503,366,470,375
1104504,367,470,376
1104505,367,466,376
1104506,365,464,376
1104507,364,462,373
1104508,363,457,370
1104509,360,454,368
1104510,360,456,368
1104511,359,455,367
1104512,359,460,369
1104513,361,463,371
1104514,361,467,370
1104515,361,464,371
1104516,360,463,371
1104517,362,462,370
1104518,362,462,369
1104519,362,458,371
1104520,359,454,366
1104521,358,454,367
1104522,358,452,365
1104523,355,449,366
1104524,355,451,365
1104525,354,451,364
1104526,355,447,363
1104527,356,452,366
1104528,357,458,364
1104529,360,466,369
1104530,363,471,374
1104531,365,474,376
1104532,367,477,378
1104533,369,472,378
1104534,365,468,377
1104535,365,461,374
1104536,362,456,372
1104537,358,451,368
1104538,356,447,365
1104539,353,444,363
1104540,352,444,361
1104541,351,442,362
1104542,347,442,359
1104543,349,444,359
1104544,350,444,359
1104545,350,445,359
1104546,351,447,360
1104547,351,451,360
1104548,352,452,361
1104549,354,459,364
1104550,358,465,368
1104551,362,475,373
1104552,366,481,377
1104553,370,482,381
1104554,371,477,380
1104555,370,473,380
1104556,367,467,377
1104557,365,458,374
1104558,361,453,368
1104559,359,450,367
1104560,356,449,365
1104561,356,450,364
1104562,356,452,365
1104563,355,455,363
1104564,356,458,365
1104565,358,459,367
1104566,359,460,369
1104567,360,462,369
1104568,361,463,370
1104569,361,465,371
1104570,363,462,372
1104571,363,467,373
1104572,364,468,373
1104573,364,466,373
1104574,363,464,372
1104575,360,458,371
1104576,359,454,367
1104577,356,451,364
1104578,355,448,364
1104579,353,443,361
1104580,351,442,361
1104581,350,445,359
1104582,350,444,361
1104583,352,447,361
1104584,352,449,361
1104585,351,449,361
1104586,352,447,362
1104587,351,447,361
1104588,353,446,361
1104589,353,448,362
1104590,352,449,362
1104591,353,450,361
1104592,353,452,361
1104593,353,452,362
1104594,353,448,362
1104595,351,447,361
1104596,348,438,357
1104597,347,437,355
1104598,345,435,353
1104599,343,432,352
1104600,343,434,351
1104601,344,434,351
1104602,342,433,351
1104603,344,436,352
1104604,343,437,353
1104605,344,434,354
1104606,345,436,352
1104607,344,437,355
1104608,345,438,355
1104609,346,442,355
1104610,347,444,357
1104611,350,450,358
1104612,351,453,360
1104613,355,453,364
1104614,354,455,363
1104615,355,452,364
1104616,353,447,363
1104617,353,449,361
1104618,352,447,361
1104619,351,446,359
1104620,352,447,360
1104621,352,449,360
1104622,352,446,360
1104623,352,443,359
1104624,350,444,359
1104625,346,441,355
1104626,348,441,357
1104627,348,442,356
1104628,348,440,358
1104629,347,442,358
1104630,347,442,358
1104631,348,440,357
1104632,348,441,358
1104633,349,446,357
1104634,350,445,358
1104635,349,447,358
1104636,350,449,361
1104637,351,450,360
1104638,350,449,361
1104639,351,446,360
1104640,351,444,359
1104641,351,443,359
1104642,351,446,360
1104643,351,448,360
1104644,351,448,361
1104645,353,452,363
1104646,355,452,362
1104647,353,451,362
1104648,354,449,363
1104649,354,450,363
1104650,353,446,362
1104651,352,447,362
1104652,350,450,362
1104653,352,452,362
1104654,353,449,362
1104655,350,448,360
1104656,352,444,358
1104657,350,446,360
1104658,348,447,359
1104659,348,446,357
1104660,349,445,358
1104661,350,445,360
1104662,349,442,358
1104663,349,443,359
1104664,349,440,358
1104665,348,439,356
1104666,347,441,356
1104667,346,439,356
1104668,348,439,356
1104669,346,441,357
1104670,348,442,356
1104671,347,442,355
1104672,347,439,356
1104673,348,440,355
1104674,347,444,356
1104675,347,443,356
1104676,349,443,358
1104677,347,443,355
1104678,346,445,356
1104679,348,445,358
1104680,349,446,358
1104681,349,441,359
1104682,348,446,357
1104683,350,449,360
1104684,353,454,361
1104685,354,453,364
1104686,354,457,366
1104687,357,458,367
1104688,357,455,366
1104689,358,456,368
1104690,357,454,367
1104691,358,454,365
1104692,357,453,366
1104693,355,450,363
1104694,355,445,363
1104695,352,448,362
1104696,352,447,359
1104697,349,445,359
1104698,351,445,359
1104699,352,450,359
1104700,353,453,362
1104701,353,457,364
1104702,357,460,366
1104703,359,463,368
1104704,360,464,370
1104705,362,463,373
1104706,362,462,371
1104707,361,459,371
1104708,359,459,371
1104709,359,456,369
1104710,359,455,367
1104711,356,452,367
1104712,357,453,366
1104713,355,451,364
1104714,354,450,364
1104715,353,449,360
1104716,352,448,360
1104717,352,447,361
1104718,352,447,361
1104719,351,447,359
1104720,350,447,360
1104721,351,448,360
1104722,351,445,361
1104723,352,450,362
1104724,353,451,364
1104725,354,453,363
1104726,355,454,364
1104727,356,454,367
1104728,356,455,366
1104729,357,457,366
1104730,358,455,366
1104731,357,458,366
1104732,359,458,367
1104733,359,462,368
1104734,360,460,367
1104735,359,462,370
1104736,360,460,369
1104737,361,462,370
1104738,360,461,369
1104739,360,458,368
1104740,361,459,369
1104741,360,457,370
1104742,360,457,369
1104743,358,457,369
1104744,359,458,368
1104745,359,456,367
1104746,360,453,367
1104747,359,452,367
1104748,359,452,368
1104749,358,454,366
1104750,357,454,365
1104751,357,454,365
1104752,356,452,364
1104753,355,454,363
1104754,355,453,363
1104755,353,453,363
1104756,355,452,363
1104757,355,452,363
1104758,353,451,364
1104759,354,448,363
1104760,353,452,363
1104761,354,451,362
1104762,355,453,364
1104763,356,454,364
1104764,356,455,367
1104765,358,460,368
1104766,359,461,370
1104767,360,462,369
1104768,361,464,371
1104769,361,463,371
1104770,360,463,371
1104771,360,463,371
1104772,361,464,370
1104773,363,466,371
1104774,363,467,372
1104775,362,467,372
1104776,364,468,373
1104777,364,465,372
1104778,363,466,372
1104779,364,464,372
1104780,363,462,373
1104781,363,462,373
1104782,362,462,372
1104783,362,460,372
1104784,360,459,371
1104785,361,458,371
1104786,360,460,371
1104787,361,460,371
1104788,361,463,370
1104789,363,463,373
1104790,364,468,373
1104791,366,471,376
1104792,368,474,377
1104793,370,478,379
1104794,372,478,380
1104795,370,477,380
1104796,370,473,380
1104797,366,468,377
1104798,367,464,376
1104799,363,462,373
1104800,364,460,374
1104801,362,460,371
1104802,362,459,371
1104803,361,454,371
1104804,359,457,370
1104805,359,458,370
1104806,359,456,367
1104807,359,457,371
1104808,360,458,370
1104809,360,459,370
1104810,360,460,370
1104811,359,461,370
1104812,359,462,369
1104813,361,462,370
1104814,362,465,371
1104815,360,466,372
1104816,361,465,372
1104817,363,465,373
1104818,363,467,372
1104819,365,465,373
1104820,364,465,373
1104821,365,467,374
1104822,362,466,374
1104823,364,466,373
1104824,363,463,374
1104825,364,464,373
1104826,364,462,373
1104827,361,464,371
1104828,363,465,372
1104829,363,462,373
1104830,363,463,373
1104831,362,464,372
1104832,363,463,372
1104833,359,463,370
1104834,360,461,369
1104835,359,461,370
1104836,359,459,370
1104837,361,461,369
1104838,360,459,370
1104839,359,461,370
1104840,361,464,371
1104841,361,464,371
1104842,362,463,371
1104843,362,464,372
1104844,363,463,374
1104845,363,463,372
1104846,361,463,373
1104847,363,460,372
1104848,363,464,372
1104849,364,463,374
1104850,364,467,374
1104851,364,466,372
1104852,362,466,374
1104853,363,467,373
1104854,362,467,373
1104855,365,468,374
1104856,365,466,374
1104857,365,468,373
1104858,365,468,376
1104859,364,466,375
1104860,364,468,374
1104861,364,466,375
1104862,364,463,375
1104863,363,462,373
1104864,363,459,373
1104865,362,461,372
1104866,362,462,371
1104867,362,462,372
1104868,362,462,372
1104869,361,461,374
1104870,364,464,372
1104871,364,467,372
1104872,363,467,375
1104873,364,467,374
1104874,364,467,375
1104875,363,466,373
1104876,363,464,371
1104877,361,461,372
1104878,360,460,370
1104879,361,460,370
1104880,360,458,370
1104881,360,460,369
1104882,360,461,370
1104883,360,458,370
1104884,361,460,371
1104885,361,460,371
1104886,360,463,372
1104887,363,462,372
1104888,363,467,373
1104889,364,465,374
1104890,365,467,374
1104891,364,468,374
1104892,365,463,373
1104893,363,464,375
1104894,363,462,372
1104895,362,461,371
1104896,361,460,371
1104897,359,463,371
1104898,362,464,371
1104899,363,463,372
1104900,359,459,370
1104901,361,457,371
1104902,360,462,370
1104903,360,460,371
1104904,360,460,371
1104905,360,459,371
1104906,360,458,369
1104907,359,458,370
1104908,360,458,369
1104909,361,458,370
1104910,359,455,369
1104911,358,457,368
1104912,358,456,368
1104913,356,456,367
1104914,357,457,367
1104915,358,455,366
1104916,356,456,366
1104917,357,458,367
1104918,358,460,368
1104919,359,463,369
1104920,362,466,371
1104921,363,468,373
1104922,365,468,374
1104923,363,466,374
1104924,364,464,373
1104925,365,463,372
1104926,363,460,372
1104927,362,461,372
1104928,362,459,371
1104929,362,457,370
1104930,360,458,369
1104931,357,455,368
1104932,356,454,366
1104933,358,454,366
1104934,355,454,364
1104935,353,453,362
1104936,355,451,361
1104937,354,449,362
1104938,354,451,364
1104939,353,450,362
1104940,354,450,363
1104941,355,454,365
1104942,357,458,366
1104943,358,459,367
1104944,358,460,369
1104945,360,461,371
1104946,361,461,370
1104947,362,460,371
1104948,361,459,371
1104949,359,456,370
1104950,359,460,369
1104951,359,458,369
1104952,360,460,368
1104953,359,459,369
1104954,359,457,369
1104955,358,457,365
1104956,358,456,366
1104957,357,458,367
1104958,357,456,367
1104959,359,456,366
1104960,358,455,365
1104961,358,459,367
1104962,358,457,367
1104963,358,458,367
1104964,357,456,367
1104965,356,454,367
1104966,357,453,367
1104967,356,451,366
1104968,356,450,365
1104969,354,449,363
1104973,352,451,360
1104974,352,456,360
1104975,355,456,363
1104976,355,458,365
1104977,357,455,367
1104978,357,456,365
1104979,358,454,366
1104979,356,455,364
1104980,355,451,364
1104981,356,452,365
1104982,357,452,365
1104983,357,452,365
1104984,358,455,365
1104985,357,455,366
1104986,358,457,366
1104986,358,457,368
1104987,358,457,367
1104988,358,455,367
1104989,358,454,366
1104990,358,456,365
1104991,357,454,365
1104992,355,453,366
1104993,356,452,363
1104994,356,449,364
1104995,355,450,362
1104995,354,449,361
1104996,353,448,360
1104997,351,446,361
1104998,352,449,361
1104999,353,448,361
1105000,352,449,362
1105001,354,448,362
1105002,354,451,363
1105003,354,456,364
1105004,357,460,366
1105005,359,463,369
1105006,361,466,370
1105007,363,468,374
1105008,365,466,375
1105009,365,467,374
1105010,362,464,374
1105011,361,460,372
1105012,360,457,368
1105013,358,455,369
1105014,358,454,368
1105015,358,452,365
1105016,355,452,365
1105017,354,450,364
1105018,356,449,364
1105019,354,450,362
1105020,354,449,362
1105021,353,450,363
1105022,353,453,362
1105023,355,453,361
1105024,355,452,363
1105025,355,452,364
1105026,357,454,366
1105027,356,455,366
1105028,355,454,366
1105029,356,455,366
1105030,354,456,367
1105031,358,456,366
1105032,357,458,365
1105033,358,458,368
1105034,358,459,368
1105035,357,456,367
1105036,358,457,366
1105037,358,460,367
1105038,358,460,368
1105039,360,461,368
1105040,359,460,368
1105041,359,458,368
1105042,359,456,368
1105043,357,452,366
1105044,355,451,365
1105045,355,447,364
1105046,354,445,362
1105047,353,448,363
1105048,353,447,360
1105049,354,449,363
1105050,352,451,362
1105051,353,449,361
1105052,352,447,361
1105053,351,448,361
1105054,351,447,360
1105055,349,443,358
1105056,350,442,358
1105057,348,440,357
1105058,348,441,355
1105059,347,439,354
1105060,346,439,354
1105061,346,439,353
1105062,345,437,355
1105063,346,440,355
1105064,348,444,357
1105065,349,445,355
1105066,351,449,360
1105067,352,452,361
1105068,353,451,362
1105069,355,454,363
1105070,355,454,365
1105071,356,454,366
1105072,354,455,364
1105073,355,453,364
1105074,355,452,363
1105075,354,450,363
1105076,352,444,361
1105077,351,446,359
1105078,349,445,360
1105079,347,444,359
1105080,350,444,357
1105081,348,443,357
1105082,350,444,358
1105083,350,449,360
1105084,351,446,360
1105085,352,451,361
1105086,353,454,364
1105087,355,456,366
1105088,356,456,366
1105089,357,452,366
1105090,356,453,365
1105091,355,454,365
1105092,356,453,366
1105093,355,453,364
1105094,354,449,363
1105095,352,448,361
1105096,351,447,360
1105097,351,448,360
1105098,350,447,359
1105099,351,445,360
1105100,351,446,359
1105101,352,448,359
1105102,350,446,359
1105103,351,446,360
1105104,352,448,361
1105105,351,449,360
1105106,352,449,360
1105107,353,449,362
1105108,354,453,363
1105109,353,455,364
1105110,354,453,364
1105111,354,455,365
1105112,355,454,364
1105113,355,454,365
1105114,354,451,365
1105115,355,454,363
1105116,355,451,365
1105117,354,449,364
1105118,354,451,361
1105119,354,451,363
1105120,353,451,362
1105121,354,449,363
1105122,352,448,362
1105123,354,450,363
1105124,355,453,363
1105125,355,454,365
1105126,355,452,366
1105127,356,452,365
1105128,355,451,366
1105129,356,452,365
1105130,354,452,364
1105131,353,450,363
1105132,352,448,362
1105133,351,447,362
1105134,352,446,360
1105135,351,445,360
1105136,350,444,358
1105137,350,442,359
1105138,349,446,358
1105139,349,445,359
1105140,349,448,359
1105141,351,449,359
1105142,352,450,362
1105143,352,450,361
1105144,353,449,362
1105145,354,452,363
1105146,354,451,363
1105147,354,449,363
1105148,353,447,361
1105149,352,447,363
1105150,353,447,361
1105151,351,445,360
1105152,351,445,359
1105153,348,445,359
1105154,349,444,358
1105155,348,444,358
1105156,349,443,357
1105157,350,449,358
1105158,352,451,360
1105159,352,455,363
1105160,354,451,364
1105161,355,456,365
1105162,355,457,367
1105163,358,454,366
1105164,355,451,365
1105165,355,447,363
1105166,353,445,362
1105167,354,448,363
1105168,353,445,362
1105169,353,445,361
1105170,353,450,361
1105171,352,451,361
1105172,355,451,364
1105173,354,454,364
1105174,354,456,366
1105175,355,456,366
1105176,355,456,364
1105177,355,452,363
1105178,355,449,365
1105179,354,448,363
1105180,353,448,364
1105181,354,450,362
1105182,354,450,361
1105183,354,450,363
1105184,354,454,365
1105185,356,457,366
1105186,357,459,368
1105187,359,459,370
1105188,360,461,370
1105189,361,461,371
1105190,362,461,372
1105191,360,460,370
1105192,360,457,367
1105193,358,457,368
1105194,359,458,367
1105195,358,458,368
1105196,357,458,367
1105197,358,456,367
1105198,358,455,366
1105199,356,456,367
1105200,356,456,367
1105201,357,455,366
1105202,356,454,366
1105203,358,454,365
1105204,357,453,365
1105205,356,454,366
1105206,355,452,364
1105207,354,451,364
1105208,356,449,364
1105209,354,449,364
1105210,355,449,364
1105211,354,447,362
1105212,353,446,361
1105213,352,446,360
1105214,351,446,359
1105215,350,446,358
1105216,350,444,358
1105217,348,441,357
1105218,348,444,358
1105219,348,445,358
1105220,349,446,358
1105221,350,447,360
1105222,351,448,359
1105223,352,449,361
1105224,353,450,364
1105225,354,454,364
1105226,357,457,367
1105227,357,458,367
1105228,358,458,368
1105229,356,456,366
1105230,358,456,366
1105231,356,454,366
1105232,355,450,364
1105233,354,452,364
1105234,354,452,365
1105235,354,448,364
1105236,352,449,363
1105237,354,450,362
1105238,354,451,362
1105239,356,452,364
1105240,354,452,363
1105241,355,455,364
1105242,356,453,365
1105243,358,457,367
1105244,358,461,367
1105245,361,465,370
1105246,363,468,374
1105247,366,474,375
1105248,367,479,379
1105249,371,477,381
1105250,370,475,382
1105251,371,473,382
1105252,369,470,379
1105253,367,465,376
1105254,365,465,374
1105255,364,461,372
1105256,362,460,372
1105257,361,459,369
1105258,359,457,368
1105259,359,456,368
1105260,358,455,367
1105261,358,455,367
1105262,358,455,367
1105263,356,455,366
1105264,357,453,366
1105265,358,455,367
1105266,358,455,367
1105267,356,454,366
1105268,357,454,365
1105269,357,454,366
1105270,358,453,366
1105271,355,454,364
1105272,356,453,365
1105273,355,453,365
1105274,355,454,364
1105275,356,459,366
1105276,357,460,368
1105277,358,461,368
1105278,360,462,368
1105279,360,457,369
1105280,360,460,368
1105281,360,460,369
1105282,359,460,369
1105283,359,457,370
1105284,362,460,371
1105285,361,457,371
1105286,361,460,371
1105287,361,461,370
1105288,362,460,371
1105289,360,461,371
1105290,362,461,370
1105291,359,461,370
1105292,362,457,370
1105293,359,460,368
1105294,358,457,368
1105295,359,456,368
1105296,358,459,367
1105297,358,460,367
1105298,359,458,368
1105299,358,461,367
1105300,360,462,369
1105301,361,462,368
1105302,361,462,369
1105303,361,465,372
1105304,361,466,372
1105305,364,467,373
1105306,364,467,375
1105307,365,465,374
1105308,364,464,373
1105309,363,463,372
1105310,362,465,373
1105311,363,461,372
1105312,362,462,372
1105313,364,465,373
1105314,364,469,374
1105315,365,468,374
1105316,364,468,376
1105317,364,466,375
1105318,364,464,374
1105319,362,463,373
1105320,363,461,372
1105321,361,460,369
1105322,359,460,369
1105323,360,459,369
1105324,360,459,369
1105325,359,459,368
1105326,359,457,369
1105327,360,461,370
1105328,360,458,372
1105329,361,462,369
1105330,362,463,371
1105331,362,463,371
1105332,362,464,370
1105333,362,465,371
1105334,361,462,371
1105335,362,464,372
1105336,361,462,371
1105337,361,461,371
1105338,361,459,372
1105339,362,461,370
1105340,360,461,370
1105341,360,460,370
1105342,362,461,370
1105343,359,461,371
1105344,363,463,371
1105345,363,464,373
1105346,363,463,374
1105347,363,463,373
1105348,364,464,372
1105349,363,465,373
1105350,363,463,374
1105351,363,463,375
1105352,363,465,373
1105353,363,465,373
1105354,362,463,372
1105355,361,463,372
1105356,361,463,371
1105357,360,462,370
1105358,361,463,370
1105359,361,459,371
1105360,360,462,370
1105361,362,459,370
1105362,360,458,369
1105363,361,460,369
1105364,361,458,371
1105365,359,458,369
1105366,360,457,369
1105367,360,458,370
1105368,361,462,370
1105369,361,465,372
1105370,363,468,373
1105371,363,467,373
1105372,365,468,374
1105373,364,470,375
1105374,364,466,376
1105375,364,465,375
1105376,364,464,375
1105377,362,463,372
1105378,363,461,371
1105379,362,461,372
1105380,361,460,371
1105381,362,460,371
1105382,361,456,370
1105383,361,459,370
1105384,360,461,371
1105385,361,460,371
1105386,361,457,371
1105387,361,457,371
1105388,361,462,372
1105389,362,462,372
1105390,363,465,372
1105391,363,467,373
1105392,364,468,374
1105393,366,472,375
1105394,365,470,376
1105395,366,472,375
1105396,367,470,377
1105397,366,467,375
1105398,366,467,377
1105399,365,468,376
1105400,367,468,376
1105401,367,470,376
1105402,366,468,377
1105403,367,467,375
1105404,366,467,377
1105405,366,467,375
1105406,365,466,375
1105407,366,465,374
1105408,366,464,374
1105409,364,463,375
1105410,365,465,375
1105411,365,467,374
1105412,363,465,374
1105413,363,467,373
1105414,364,467,373
1105415,364,465,374
1105416,363,464,371
1105417,361,464,371
1105418,362,462,372
1105419,361,461,369
1105420,360,460,370
1105421,360,459,371
1105422,360,459,371
1105423,361,459,370
1105424,362,462,373
1105425,362,462,372
1105426,363,463,371
1105427,364,467,374
1105428,365,467,374
1105429,365,466,374
1105430,363,465,374
1105431,363,466,374
1105432,363,462,374
1105433,363,464,373
1105434,363,460,373
1105435,361,462,371
1105436,362,462,369
1105437,362,461,370
1105438,361,460,371
1105439,360,458,369
1105440,360,460,370
1105441,361,461,371
1105442,361,462,370
1105443,361,461,369
1105444,361,460,371
1105445,360,460,371
1105446,360,457,372
1105447,360,460,370
1105448,362,459,371
1105449,361,465,372
1105450,362,465,372
1105451,364,463,374
1105452,363,467,372
1105453,363,462,372
1105454,363,465,374
1105455,363,464,372
1105456,361,462,371
1105457,361,462,370
1105458,361,463,371
1105459,362,463,370
1105460,362,464,372
1105461,363,464,373
1105462,365,468,374
1105463,367,470,376
1105464,367,473,378
1105465,368,475,379
1105466,371,475,380
1105467,369,475,381
1105468,369,475,382
1105469,370,475,381
1105470,369,473,380
1105471,369,472,379
1105472,368,470,378
1105473,366,470,378
1105474,367,469,376
1105475,366,471,376
1105476,365,467,374
1105477,365,467,374
1105478,365,466,374
1105479,363,465,374
1105480,367,465,374
1105481,366,468,374
1105482,364,470,377
1105483,367,471,378
1105484,367,471,378
1105485,367,473,379
1105486,370,470,378
1105487,369,471,379
1105488,368,470,378
1105489,367,466,377
1105490,366,467,377
1105491,366,468,375
1105492,365,468,375
1105493,365,468,375
1105494,365,469,374
1105495,366,467,375
1105496,366,472,376
1105497,367,473,377
1105498,368,474,378
1105499,369,476,378
1105500,370,478,380
1105501,371,472,380
1105502,369,473,379
1105503,367,473,379
1105504,369,470,379
1105505,368,471,379
1105506,368,465,377
1105507,365,468,376
1105508,367,467,377
1105509,365,467,376
1105510,365,468,376
1105511,365,468,375
1105512,368,467,376
1105513,367,470,376
1105514,368,472,376
1105515,367,472,377
1105516,365,469,375
1105517,366,468,375
1105518,365,467,374
1105519,364,465,376
1105520,363,462,373
1105521,365,461,373
1105522,363,467,374
1105523,364,465,374
1105524,363,467,374
1105525,366,468,376
1105526,366,466,375
1105527,367,467,376
1105528,368,470,376
1105529,368,470,377
1105530,367,467,377
1105531,367,470,377
1105532,366,473,377
1105533,367,473,378
1105534,370,475,379
1105535,369,473,378
1105536,369,474,378
1105537,368,472,378
1105538,369,471,377
1105539,367,469,377
1105540,366,469,376
1105541,366,464,376
1105542,364,467,375
1105543,365,464,376
1105544,366,467,375
1105545,365,471,376
1105546,366,466,376
1105547,366,470,376
1105548,366,471,377
1105549,367,471,378
1105550,368,470,379
1105551,370,473,378
1105552,370,470,379
1105553,370,473,380
1105554,369,473,378
1105555,367,471,376
1105556,370,471,377
1105557,368,472,377
1105558,367,472,376
1105559,368,470,375
1105560,367,472,377
1105561,368,471,376
1105562,369,470,379
1105563,368,472,378
1105564,369,470,378
1105565,367,472,378
1105566,369,472,378
1105567,368,471,379
1105568,367,472,380
1105569,369,469,381
1105570,367,472,378
1105571,369,471,377
1105572,367,472,378
1105573,368,478,378
1105574,367,472,377
1105575,366,472,377
1105576,366,471,377
1105577,368,467,378
1105578,368,468,378
1105579,367,471,377
1105580,366,469,377
1105581,367,469,376
1105582,368,467,376
1105583,367,470,376
1105584,367,467,378
1105585,367,467,378
1105586,368,469,377
1105587,366,468,376
1105588,367,468,377
1105589,366,467,378
1105590,366,467,374
1105591,366,470,376
1105592,366,467,376
1105593,365,469,376
1105594,365,469,374
1105595,367,470,375
1105596,365,469,374
1105597,366,466,376
1105598,367,470,376
1105599,366,470,376
1105600,366,471,376
1105601,369,470,377
1105602,368,469,377
1105603,370,474,379
1105604,371,473,380
1105605,370,476,381
1105606,371,477,381
1105607,372,476,381
1105608,369,476,381
1105609,371,474,379
1105610,369,473,380
1105611,368,470,378
1105612,369,472,377
1105613,368,470,378
1105614,366,470,377
1105615,367,471,376
1105616,367,471,377
1105617,366,469,376
1105618,367,472,376
1105619,367,471,377
1105620,367,472,377
1105621,367,472,377
1105622,366,472,378
1105623,369,471,379
1105624,368,472,379
1105625,369,470,379
1105626,369,472,379
1105627,370,473,380
1105628,369,471,380
1105629,367,472,378
1105630,369,470,378
1105631,369,468,378
1105632,368,471,378
1105633,369,469,378
1105634,367,469,377
1105635,367,469,375
1105636,366,469,375
1105637,365,467,374
1105638,365,466,373
1105639,364,465,375
1105640,364,464,373
1105641,363,465,375
1105642,364,463,374
1105643,364,466,376
1105644,365,465,374
1105645,364,466,375
1105646,365,466,375
1105647,366,468,376
1105648,365,465,375
1105649,366,468,375
1105650,366,465,377
1105651,364,465,375
1105652,364,469,374
1105653,366,467,375
1105654,364,468,374
1105655,365,467,374
1105656,365,468,373
1105657,363,467,374
1105658,365,466,374
1105659,365,467,374
1105660,363,468,374
1105661,364,467,375
1105662,364,464,372
1105663,364,464,374
1105664,364,465,373
1105665,364,466,374
1105666,363,467,376
1105667,365,467,375
1105668,366,467,376
1105669,365,468,374
1105670,366,465,375
1105671,367,468,375
1105672,366,468,375
1105673,366,467,376
1105674,366,471,376
1105675,366,469,375
1105676,366,471,376
1105677,368,468,377
1105678,368,473,376
1105679,368,472,378
1105680,368,471,377
1105681,367,474,378
1105682,367,470,377
1105683,367,470,377
1105684,368,469,379
1105685,369,471,378
1105686,368,475,377
1105687,369,474,381
1105688,370,476,381
1105689,372,474,382
1105690,371,469,379
1105691,370,473,381
1105692,370,472,379
1105693,371,472,379
1105694,367,471,379
1105695,368,472,378
1105696,366,471,377
1105697,366,471,376
1105698,365,470,376
1105699,365,470,376
1105700,366,470,376
1105701,367,467,376
1105702,368,467,375
1105703,366,464,376
1105704,365,467,377
1105705,366,464,378
1105706,365,467,375
1105707,366,466,375
1105708,365,465,375
1105709,365,465,376
1105710,364,466,374
1105711,365,466,374
1105712,364,464,374
1105713,365,466,375
1105714,363,466,372
1105715,364,465,374
1105716,363,465,372
1105717,361,464,371
1105718,363,463,372
1105719,362,464,370
1105720,362,459,372
1105721,361,463,371
1105722,362,462,373
1105723,362,463,371
1105724,360,463,372
1105725,362,461,373
1105726,362,460,373
1105727,363,462,372
1105728,362,461,373
1105729,364,463,373
1105730,363,463,374
1105731,364,465,373
1105732,363,465,370
1105733,363,463,371
1105734,362,464,372
1105735,362,463,374
1105736,363,464,371
1105737,362,462,371
1105738,362,463,372
1105739,361,462,370
1105740,361,462,371
1105741,361,460,369
1105742,362,463,371
1105743,363,465,373
1105744,364,464,374
1105745,364,465,373
1105746,364,466,374
1105747,364,466,373
1105748,363,465,374
1105749,364,463,374
1105750,364,464,372
1105751,363,465,374
1105752,363,464,373
1105753,363,466,374
1105754,365,465,375
1105755,365,465,373
1105756,364,466,373
1105757,363,465,372
1105758,363,464,374
1105759,364,467,374
1105760,363,467,374
1105761,364,467,375
1105762,366,468,376
1105763,366,468,376
1105764,368,469,377
1105765,367,465,377
1105766,368,468,376
1105767,366,468,378
1105768,365,467,377
1105769,365,468,375
1105770,365,468,378
1105771,364,468,377
1105772,366,468,375
1105773,364,468,376
1105774,365,469,375
1105775,366,468,374
1105776,365,470,374
1105777,365,469,374
1105778,365,467,376
1105779,366,469,375
1105780,366,469,375
1105781,368,469,375
1105782,367,472,378
1105783,367,470,377
1105784,368,471,378
1105785,369,470,379
1105786,368,470,379
1105787,369,471,379
1105788,369,467,378
1105789,368,470,378
1105790,368,471,378
1105791,367,471,377
1105792,366,470,376
1105793,367,471,378
1105794,367,471,378
1105795,366,471,376
1105796,367,469,376
1105797,366,468,376
1105798,366,471,376
1105799,367,468,376
1105800,367,469,378
1105801,367,470,376
1105802,367,469,378
1105803,368,471,376
1105804,368,473,378
1105805,369,472,377
1105806,368,473,377
1105807,369,471,380
1105808,369,472,382
1105809,371,476,380
1105810,369,477,382
1105811,372,474,381
1105812,371,476,382
1105813,371,477,381
1105814,370,476,380
1105815,371,478,380
1105816,372,478,382
1105817,373,476,381
1105818,372,476,381
1105819,372,475,380
1105820,372,476,381
1105821,372,477,381
1105822,373,478,382
1105823,372,478,384
1105824,375,476,384
1105825,375,477,384
1105826,375,481,384
1105827,375,481,385
1105828,375,481,384
1105829,376,480,387
1105830,377,479,387
1105831,375,481,386
1105832,376,484,388
1105833,376,485,387
1105834,376,485,388
1105835,377,485,387
1105836,376,487,387
1105837,377,483,388
1105838,378,485,388
1105839,377,484,387
1105840,377,483,388
1105841,378,482,387
1105842,376,482,386
1105843,376,483,387
1105844,376,487,387
1105845,378,482,388
1105846,378,485,390
1105847,378,488,388
1105848,380,489,390
1105849,382,488,391
1105850,379,490,389
1105851,380,489,390
1105852,381,489,392
1105853,381,487,391
1105854,381,489,391
1105855,380,486,390
1105856,377,486,390
1105857,380,488,390
1105858,380,487,387
1105859,380,483,387
1105860,378,488,390
1105861,377,486,389
1105862,378,486,388
1105863,378,487,389
1105864,379,487,388
1105865,379,487,392
1105866,381,490,391
1105867,380,487,391
1105868,380,488,392
1105869,382,484,391
1105870,380,488,391
1105871,382,489,391
1105872,382,489,391
1105873,381,488,391
1105874,378,489,391
1105875,379,489,391
1105876,379,488,390
1105877,379,490,389
1105878,380,486,390
1105879,379,484,389
1105880,379,487,391
1105881,380,485,390
1105882,380,488,390
1105883,380,488,389
1105884,381,488,391
1105885,379,488,391
1105886,381,491,391
1105887,380,489,391
1105888,382,489,391
1105889,381,491,390
1105890,380,490,391
1105891,381,490,392
1105892,381,492,392
1105893,381,491,392
1105894,382,489,392
1105895,381,487,392
1105896,381,492,391
1105897,381,491,394
1105898,382,494,393
1105899,384,493,393
1105900,382,494,396
1105901,386,494,396
1105902,383,496,396
1105903,383,497,396
1105904,385,497,397
1105905,385,493,397
1105906,386,496,397
1105907,386,491,395
1105908,384,494,397
1105909,385,493,396
1105910,383,493,394
1105911,384,492,394
1105912,383,491,393
1105913,382,492,392
1105914,382,491,392
1105915,382,492,392
1105916,381,489,392
1105917,382,490,391
1105918,381,490,390
1105919,380,487,390
1105920,381,487,390
1105921,380,485,390
1105922,381,487,390
1105923,381,487,389
1105924,381,486,389
1105925,379,488,389
1105926,382,487,391
1105927,381,496,392
1105928,380,486,391
1105929,380,488,390
1105930,381,489,392
1105931,379,488,392
1105932,380,488,392
1105933,380,485,391
1105934,380,488,390
1105935,380,487,389
1105936,378,488,389
1105937,379,489,390
1105938,379,488,389
1105939,379,487,390
1105940,379,487,391
1105941,379,485,390
1105942,378,486,390
1105943,378,486,390
1105944,379,487,390
1105945,380,486,390
1105946,379,486,390
1105947,379,487,390
1105948,380,487,390
1105949,380,487,391
1105950,380,485,391
1105951,379,488,390
1105952,377,488,389
1105953,379,487,390
1105954,379,489,389
1105955,378,489,389
1105956,378,486,390
1105957,380,487,390
1105958,380,488,389
1105959,380,485,389
1105960,380,487,388
1105961,380,485,389
1105962,377,486,389
1105963,377,484,389
1105964,379,485,388
1105965,378,486,389
1105966,378,486,389
1105967,379,487,389
1105968,380,486,390
1105969,378,486,390
1105970,379,488,390
1105971,380,486,389
1105972,378,486,388
1105973,379,487,389
1105974,377,487,387
1105975,379,486,389
1105976,377,486,387
1105977,377,485,388
1105978,378,484,387
1105979,377,485,387
1105980,377,484,387
1105981,377,482,387
1105982,376,485,387
1105983,377,484,388
1105984,376,485,389
1105985,378,485,389
1105986,378,484,388
1105987,377,484,389
1105988,377,485,389
1105989,379,485,388
1105990,379,483,388
1105991,378,482,389
1105992,377,484,387
1105993,379,483,389
1105994,378,484,387
1105995,377,486,387
1105996,377,482,387
1105997,376,485,386
1105998,378,486,386
1105999,377,486,387
1106000,377,485,387
1106001,377,485,388
1106002,377,484,387
1106003,378,482,387
1106004,376,484,387
1106005,376,482,388
1106006,375,482,386
1106007,377,481,388
1106008,377,482,387
1106009,377,482,388
1106010,377,483,387
1106011,379,484,388
1106012,377,482,387
1106013,378,483,386
1106014,376,480,386
1106015,376,482,386
1106016,375,484,387
1106017,376,484,386
1106018,376,479,384
1106019,377,483,386
1106020,373,483,386
1106021,374,482,386
1106022,376,481,386
1106023,376,482,387
1106024,376,481,387
1106025,375,481,386
1106026,375,482,386
1106027,376,482,386
1106028,376,479,386
1106029,376,482,386
1106030,376,483,387
1106031,376,480,386
1106032,375,480,385
1106033,375,480,385
1106034,375,477,385
1106035,375,479,383
1106036,374,479,383
1106037,376,477,383
1106038,374,478,383
1106039,372,474,382
1106040,373,477,383
1106041,373,477,382
1106042,372,478,384
1106043,373,478,384
1106044,373,475,382
1106045,373,476,382
1106046,374,476,383
1106047,372,476,383
1106048,374,479,383
1106049,374,481,384
1106050,373,480,385
1106051,374,479,384
1106052,373,479,384
1106053,374,478,383
1106054,374,477,384
1106055,373,479,383
1106056,373,477,381
1106057,372,476,381
1106058,372,476,382
1106059,371,477,382
1106060,370,475,381
1106061,372,476,381
1106062,371,475,382
1106063,372,475,380
1106064,372,475,382
1106065,371,471,382
1106066,370,477,381
1106067,371,473,381
1106068,372,477,382
1106069,371,474,382
1106070,373,477,383
1106071,372,477,381
1106072,371,478,380
1106073,371,476,381
1106074,371,473,382
1106075,371,474,380
1106076,368,476,380
1106077,370,474,381
1106078,371,476,379
1106079,371,469,380
1106080,369,471,379
1106081,369,472,381
1106082,369,474,381
1106083,369,475,382
1106084,370,474,381
1106085,371,474,383
1106086,372,475,382
1106087,372,475,381
1106088,372,477,383
1106089,371,476,383
1106090,372,476,379
1106091,371,474,383
1106092,373,475,381
1106093,371,474,381
1106094,372,476,380
1106095,371,474,381
1106096,370,474,381
1106097,370,475,380
1106098,369,471,379
1106099,369,472,380
1106100,368,474,379
1106101,369,471,379
1106102,369,471,379
1106103,369,473,378
1106104,371,472,380
1106105,369,472,380
1106106,369,472,380
1106107,370,474,380
1106108,370,472,379
1106109,369,475,381
1106110,371,474,380
1106111,369,474,380
1106112,370,474,380
1106113,369,474,379
1106114,369,475,380
1106115,371,474,379
1106116,369,471,378
1106117,368,474,378
1106118,369,472,379
1106119,368,471,377
1106120,368,471,378
1106121,367,471,377
1106122,367,469,376
1106123,367,470,377
1106124,368,470,376
1106125,367,471,378
1106126,368,471,379
1106127,369,473,380
1106128,369,472,378
1106129,369,472,378
1106130,369,472,378
1106131,370,475,381
1106132,369,474,379
1106133,369,472,380
1106134,370,474,379
1106135,369,472,381
1106136,370,473,380
1106137,372,472,380
1106138,371,472,379
1106139,369,472,380
1106140,368,471,378
1106141,369,469,377
1106142,367,472,379
1106143,368,471,377
1106144,367,467,379
1106145,368,469,379
1106146,368,470,378
1106147,369,471,379
1106148,368,472,379
1106149,368,472,378
1106150,366,472,378
1106151,369,471,379
1106152,367,473,378
1106153,368,473,378
1106154,370,471,379
1106155,369,474,378
1106156,367,470,377
1106157,366,472,377
1106158,367,470,378
1106159,366,472,377
1106160,367,472,376
1106161,366,470,377
1106162,368,471,378
1106163,367,471,378
1106164,369,472,378
1106165,369,473,380
1106166,370,473,380
1106167,369,472,379
1106168,368,472,379
1106169,370,474,378
1106170,369,471,378
1106171,367,473,377
1106172,370,475,377
1106173,369,472,380
1106174,369,473,379
1106175,368,471,378
1106176,367,471,377
1106177,368,471,378
1106178,367,469,377
1106179,368,469,376
1106180,368,468,377
1106181,367,469,377
1106182,368,469,376
1106183,367,469,379
1106184,365,469,377
1106185,367,467,377
1106186,367,471,377
1106187,368,470,378
1106188,367,469,379
1106189,369,470,379
1106190,369,472,378
1106191,368,470,377
1106192,368,470,378
1106193,369,469,378
1106194,369,470,378
1106195,368,469,378
1106196,365,470,377
1106197,366,470,375
1106198,367,469,375
1106199,366,468,376
1106200,366,468,375
1106201,366,468,377
1106202,365,469,373
1106203,367,465,376
1106204,365,469,376
1106205,368,468,376
1106206,368,466,379
1106207,368,471,378
1106208,368,468,379
1106209,369,471,379
1106210,368,472,378
1106211,368,471,378
1106212,369,472,377
1106213,367,469,378
1106214,368,471,378
1106215,366,469,378
1106216,365,469,376
1106217,365,468,376
1106218,365,468,375
1106219,365,467,375
1106220,366,467,374
1106221,367,467,374
1106222,364,466,375
1106223,366,464,375
1106224,365,464,375
1106225,365,470,376
1106226,367,468,377
1106227,369,467,376
1106228,367,470,377
1106229,368,471,379
1106230,367,473,378
1106231,367,473,379
1106232,370,473,380
1106233,369,475,379
1106234,370,473,380
1106235,369,472,378
1742212347624,NEW REP,,
1106236,370,472,379
1106237,368,473,378
1106238,368,472,378
1106239,367,470,377
1106240,367,469,377
1106241,367,465,375
1106242,368,467,376
1106243,367,469,376
1106244,365,468,376
1106245,367,469,375
1106246,366,467,376
1106247,367,468,376
1106248,367,464,377
1106249,365,467,375
1106250,366,467,376
1106251,365,467,374
1106252,364,464,376
1106253,364,465,374
1106254,363,465,374
1106255,364,466,374
1106256,363,466,374
1106257,365,463,372
1106258,364,467,373
1106259,364,465,374
1106260,364,465,375
1106261,363,465,373
1106262,364,464,373
1106263,365,462,373
1106264,363,464,373
1106265,363,463,373
1106266,365,465,373
1106267,363,462,374
1106268,364,463,374
1106269,363,465,374
1106270,364,466,372
1106271,363,465,372
1106272,363,462,373
1106273,363,464,372
1106274,362,465,374
1106275,364,465,372
1106276,363,462,373
1106277,363,463,371
1106278,362,458,372
1106279,361,463,371
1106280,363,464,372
1106281,363,465,373
1106282,365,463,373
1106283,363,467,374
1106284,364,466,374
1106285,364,469,375
1106286,366,469,376
1106287,365,468,377
1106288,366,469,376
1106289,367,470,377
1106290,367,470,376
1106291,367,472,378
1106292,367,472,376
1106293,368,474,377
1106294,367,472,378
1106295,368,475,378
1106296,368,473,377
1106297,368,474,378
1106298,369,471,379
1106299,367,469,377
1106300,367,468,375
1106301,366,468,375
1106302,366,468,375
1106303,364,468,375
1106304,365,468,375
1106305,366,468,375
1106306,365,466,375
1106307,365,463,375
1106308,365,466,375
1106309,364,466,375
1106310,364,466,375
1106311,364,467,374
1106312,364,475,374
1106313,365,469,374
1106314,365,470,373
1106315,367,472,376
1106316,365,472,376
1106317,366,473,377
1106318,367,473,376
1106319,368,473,378
1106320,368,475,380
1106321,369,475,380
1106322,369,472,377
1106323,367,471,379
1106324,368,469,378
1106325,369,471,377
1106326,368,468,378
1106327,367,465,377
1106328,368,465,377
1106329,366,467,374
1106330,364,465,374
1106331,364,465,374
1106332,364,464,373
1106333,363,462,373
1106334,363,460,373
1106335,361,465,373
1106336,361,461,372
1106337,362,462,370
1106338,361,462,370
1106339,361,463,371
1106340,362,462,369
1106341,361,461,370
1106342,360,460,370
1106343,361,461,372
1106344,360,462,371
1106345,361,462,372
1106346,361,461,373
1106347,363,462,374
1106348,363,463,374
1106349,364,465,373
1106350,364,466,375
1106351,364,466,375
1106352,364,465,374
1106353,364,468,375
1106354,365,465,375
1106355,365,468,374
1106356,365,468,374
1106357,364,468,375
1106358,365,469,377
1106359,367,472,378
1106360,365,470,376
1106361,366,471,376
1106362,367,470,376
1106363,367,472,377
1106364,368,469,377
1106365,368,471,377
1106366,367,470,377
1106367,366,467,377
1106368,367,470,377
1106369,367,470,378
1106370,368,469,377
1106371,368,471,377
1106372,368,469,376
1106373,367,467,376
1106374,364,467,374
1106375,364,464,373
1106376,364,465,372
1106377,361,463,372
1106378,363,464,373
1106379,363,466,373
1106380,364,468,373
1106381,365,468,376
1106382,365,468,375
1106383,365,469,376
1106384,367,469,376
1106385,368,472,376
1106386,368,473,379
1106387,369,474,381
1106388,369,473,377
1106389,369,473,379
1106390,369,469,378
1106391,368,469,377
1106392,368,469,377
1106393,367,466,376
1106394,366,466,374
1106395,366,468,376
1106396,366,470,375
1106397,366,472,375
1106398,367,472,375
1106399,366,469,377
1106400,367,470,377
1106401,366,467,376
1106402,366,465,375
1106403,365,462,374
1106404,363,458,373
1106405,364,463,372
1106406,365,463,374
1106407,363,467,376
1106408,364,469,374
1106409,366,469,375
1106410,367,470,376
1106411,366,472,375
1106412,367,472,376
1106413,368,474,377
1106414,368,475,377
1106415,369,475,378
1106416,369,473,379
1106417,371,476,379
1106418,370,473,379
1106419,368,474,376
1106420,368,470,376
1106421,367,466,376
1106422,366,462,374
1106423,363,462,374
1106424,362,461,372
1106425,362,461,372
1106426,363,461,372
1106427,362,462,371
1106428,363,462,371
1106429,361,462,373
1106430,362,463,371
1106431,361,461,372
1106432,361,463,372
1106433,362,464,372
1106434,362,464,372
1106435,361,461,370
1106436,361,462,370
1106437,361,460,370
1106438,360,458,370
1106439,357,455,366
1106440,356,454,366
1106441,356,453,364
1106442,356,451,364
1106443,357,453,365
1106444,357,453,365
1106445,357,456,367
1106446,358,458,368
1106447,360,459,369
1106448,360,461,370
1106449,360,456,370
1106450,359,456,369
1106451,358,453,367
1106452,356,453,366
1106453,356,451,364
1106454,355,451,362
1106455,354,452,362
1106456,352,447,361
1106457,355,447,361
1106458,354,451,363
1106459,353,449,361
1106460,355,449,362
1106461,353,448,363
1106462,352,446,362
1106463,352,447,362
1106464,352,449,362
1106465,353,449,362
1106466,354,449,362
1106467,354,453,362
1106468,356,455,364
1106469,357,458,367
1106470,357,458,366
1106471,358,455,367
1106472,357,457,367
1106473,357,458,365
1106474,356,455,368
1106475,357,456,367
1106476,357,456,366
1106477,357,455,365
1106478,356,453,365
1106479,354,452,364
1106480,356,452,363
1106481,354,451,364
1106482,355,454,364
1106483,357,456,367
1106484,358,458,366
1106485,359,459,368
1106486,359,461,369
1106487,361,462,370
1106488,361,461,369
1106489,361,459,370
1106490,359,458,370
1106491,360,458,369
1106492,358,453,366
1106493,357,453,366
1106494,355,450,364
1106495,354,449,363
1106496,353,449,363
1106497,353,449,360
1106498,353,448,362
1106499,352,445,361
1106500,352,446,360
1106501,353,449,360
1106502,354,451,362
1106503,353,453,363
1106504,355,454,365
1106505,357,451,366
1106506,356,456,366
1106507,356,456,367
1106508,357,455,367
1106509,356,457,369
1106510,357,453,367
1106511,357,454,367
1106512,355,452,365
1106513,355,452,364
1106514,354,451,364
1106515,353,449,364
1106516,353,450,364
1106517,353,453,363
1106518,354,455,363
1106519,355,455,364
1106520,356,454,365
1106521,356,454,366
1106522,356,453,364
1106523,355,450,364
1106524,356,451,364
1106525,356,448,364
1106526,355,455,365
1106527,358,456,366
1106528,359,460,368
1106529,360,463,368
1106530,361,464,371
1106531,360,463,370
1106532,360,460,369
1106533,361,459,369
1106534,359,456,368
1106535,357,452,366
1106536,357,455,364
1106537,355,455,365
1106538,356,454,366
1106539,358,457,365
1106540,358,460,367
1106541,360,462,370
1106542,361,465,370
1106543,363,466,372
1106544,363,463,373
1106545,363,463,372
1106546,362,459,371
1106547,361,460,370
1106548,361,457,371
1106549,359,457,368
1106550,358,456,368
1106551,360,458,367
1106552,358,459,370
1106553,358,458,368
1106554,358,458,369
1106555,358,460,366
1106556,358,456,368
1106557,359,459,367
1106558,359,457,367
1106559,359,455,366
1106560,358,454,367
1106561,357,456,365
1106562,358,456,366
1106563,358,454,366
1106564,353,455,366
1106565,356,455,366
1106566,358,457,367
1106567,357,455,368
1106568,359,456,367
1106569,358,457,368
1106570,359,459,368
1106571,360,459,369
1106572,357,461,369
1106573,359,460,368
1106574,360,459,367
1106575,359,457,367
1106576,358,455,367
1106577,356,454,366
1106578,357,452,365
1106579,356,451,364
1106580,356,450,364
1106581,356,453,365
1106582,356,456,364
1106583,357,456,366
1106584,357,456,366
1106585,359,454,367
1106586,358,458,367
1106587,360,459,368
1106588,359,456,367
1106589,360,457,370
1106590,359,459,370
1106591,361,461,370
1106592,361,462,370
1106593,361,464,370
1106594,361,462,371
1106595,360,461,370
1106596,360,461,369
1106597,361,461,369
1106598,360,461,369
1106599,361,461,369
1106600,361,463,371
1106601,362,463,371
1106602,362,462,372
1106603,362,461,371
1106604,361,460,371
1106605,360,459,370
1106606,359,458,367
1106607,360,455,369
1106608,360,457,369
1106609,360,457,367
1106610,358,456,368
1106611,358,452,366
1106612,357,452,365
1106613,355,449,364
1106614,354,448,363
1106615,352,445,361
1106616,352,446,359
1106617,350,447,357
1106618,351,448,359
1106619,351,449,360
1106620,353,451,362
1106621,354,454,362
1106622,354,455,364
1106623,356,456,364
1106624,355,452,365
1106625,357,456,366
1106626,358,455,368
1106627,356,459,367
1106628,359,462,368
1106629,360,462,370
1106630,360,464,371
1106631,361,464,373
1106632,362,463,372
1106633,362,460,371
1106634,362,464,373
1106635,362,461,371
1106636,360,461,370
1106637,360,462,371
1106638,360,463,371
1106639,358,463,369
1106640,361,462,369
1106641,359,462,369
1106642,362,462,371
1106643,360,457,369
1106644,360,456,369
1106645,359,453,368
1106646,357,451,365
1106647,355,451,366
1106648,353,453,364
1106649,355,453,364
1106650,356,456,364
1106651,356,457,367
1106652,358,462,368
1106653,359,462,369
1106654,362,466,370
1106655,362,467,373
1106656,363,468,372
1106657,363,470,374
1106658,365,468,374
1106659,364,467,374
1106660,364,464,372
1106661,364,459,371
1106662,361,457,370
1106663,360,456,369
1106664,360,455,370
1106665,358,457,368
1106666,358,459,368
1106667,359,462,369
1106668,360,463,371
1106669,362,465,371
1106670,361,462,372
1106671,362,461,373
1106672,361,461,371
1106673,361,463,371
1106674,362,463,371
1106675,362,465,371
1106676,363,463,371
1106677,363,462,372
1106678,362,462,372
1106679,360,459,368
1106680,361,460,369
1106681,359,456,368
1106682,359,458,369
1106683,360,461,369
1106684,361,462,369
1106685,359,462,370
1106686,361,463,372
1106687,362,461,371
1106688,362,462,371
1106689,363,460,372
1106690,362,462,372
1106691,363,463,372
1106692,365,467,374
1106693,363,469,375
1106694,366,472,376
1106695,366,468,376
1106696,367,474,377
1106697,366,474,377
1106698,366,472,375
1106699,368,468,375
1106700,365,464,374
1106701,363,461,373
1106702,363,459,370
1106703,361,454,371
1106704,361,455,368
1106705,358,446,367
1106706,357,448,365
1106707,355,451,366
1106708,356,453,364
1106709,356,454,365
1106710,356,454,366
1106711,357,457,366
1106712,357,457,366
1106713,358,457,369
1106714,357,461,368
1106715,359,462,368
1106716,361,466,370
1106717,363,469,373
1106718,365,473,374
1106719,367,471,377
1106720,366,471,376
1106721,368,471,377
1106722,366,469,376
1106723,366,463,375
1106724,365,463,373
1106725,363,461,374
1106726,362,459,371
1106727,362,458,372
1106728,362,460,371
1106729,363,464,371
1106730,364,468,374
1106731,365,469,376
1106732,367,474,377
1106733,368,479,380
1106734,371,481,381
1106735,372,483,382
1106736,373,479,383
1106737,374,479,384
1106738,372,477,382
1106739,372,476,381
1106740,370,472,380
1106741,368,469,379
1106742,367,462,376
1106743,367,463,376
1106744,364,463,374
1106745,364,462,373
1106746,363,463,373
1106747,363,465,372
1106748,365,467,374
1106749,367,471,376
1106750,367,472,376
1106751,367,471,377
1106752,366,467,378
1106753,365,467,376
1106754,366,466,374
1106755,366,464,375
1106756,365,466,375
1106757,365,471,376
1106758,367,476,377
1106759,371,481,380
1106760,373,486,383
1106761,376,487,385
1106762,377,488,387
1106763,377,486,388
1106764,376,484,389
1106765,376,478,385
1106766,375,479,386
1106767,375,476,384
1106768,373,477,383
1106769,371,472,380
1106770,370,471,379
1106771,367,467,378
1106772,368,465,378
1106773,366,466,375
1106774,366,465,374
1106775,366,467,374
1106776,365,468,375
1106777,366,468,374
1106778,366,470,375
1106779,366,468,375
1106780,366,465,375
1106781,366,468,376
1106782,365,469,377
1106783,368,469,377
1106784,368,469,378
1106785,368,472,378
1106786,368,474,379
1106787,369,474,380
1106788,369,470,382
1106789,369,469,379
1106790,369,473,380
1106791,369,474,379
1106792,369,475,380
1106793,369,477,379
1106794,370,476,381
1106795,372,480,383
1106796,373,482,383
1106797,373,483,384
1106798,375,484,384
1106799,374,478,385
1106800,374,479,384
1106801,373,476,383
1106802,372,473,382
1106803,371,469,380
1106804,369,470,377
1106805,369,468,378
1106806,369,471,378
1106807,367,471,377
1106808,367,472,378
1106809,371,474,379
1106810,369,475,380
1106811,370,474,381
1106812,371,475,380
1106813,369,472,379
1106814,370,469,379
1106815,368,468,378
1106816,367,465,375
1106817,365,463,374
1106818,365,467,373
1106819,367,468,375
1106820,366,468,375
1106821,365,469,376
1106822,366,467,375
1106823,366,467,375
1106824,367,465,375
1106825,366,466,375
1106826,366,465,374
1106827,367,471,376
1106828,370,476,380
1106829,373,483,382
1106830,376,485,386
1106831,376,488,385
1106832,377,487,388
1106833,376,483,386
1106834,374,481,385
1106835,374,478,385
1106836,372,477,383
1106837,373,477,381
1106838,372,477,381
1106839,371,472,380
1106840,370,472,380
1106841,370,472,379
1106842,369,469,378
1106843,368,465,377
1106844,367,467,376
1106845,367,467,377
1106846,367,469,377
1106847,368,470,376
1106848,365,469,376
1106849,368,471,377
1106850,367,471,378
1106851,368,471,377
1106852,368,472,375
1106853,368,471,377
1106854,367,469,376
1106855,366,467,376
1106856,366,467,376
1106857,365,467,375
1106858,364,469,373
1106859,366,469,378
1106860,368,474,376
1106861,368,471,378
1106862,368,473,378
1106863,367,472,379
1106864,367,470,377
1106865,367,466,377
1106866,367,468,377
1106867,368,468,377
1106868,367,467,376
1106869,367,468,376
1106870,367,473,377
1106871,368,474,379
1106872,371,478,381
1106873,372,482,382
1106874,375,485,384
1106875,374,485,387
1106876,375,484,385
1106877,376,481,386
1106878,375,480,383
1106879,373,478,383
1106880,371,476,382
1106881,371,473,380
1106882,371,470,380
1106883,369,468,379
1106884,367,465,376
1106885,366,463,375
1106886,363,464,374
1106887,363,464,372
1106888,363,465,373
1106889,363,466,374
1106890,364,465,373
1106891,364,467,374
1106892,364,468,375
1106893,366,467,375
1106894,365,469,375
1106895,365,470,374
1106896,365,469,375
1106897,366,470,374
1106898,366,468,375
1106899,366,467,375
1106900,365,467,375
1106901,366,471,374
1106902,368,476,378
1106903,369,477,380
1106904,371,480,382
1106905,373,481,384
1106906,374,478,384
1106907,372,475,382
1106908,370,472,380
1106909,369,470,378
1106910,368,466,378
1106911,368,466,377
1106912,366,469,377
1106913,366,468,375
1106914,368,473,379
1106915,371,478,379
1106916,371,479,381
1106917,372,479,379
1106918,370,475,380
1106919,371,473,380
1106920,372,473,380
1106921,369,472,379
1106922,368,470,378
1106923,369,471,378
1106924,369,471,379
1106925,368,470,377
1106926,366,467,378
1106927,366,465,375
1106928,366,465,375
1106929,365,462,375
1106930,363,463,374
1106931,365,465,374
1106932,363,467,374
1106933,364,467,374
1106934,364,468,374
1106935,364,469,374
1106936,366,473,378
1106937,366,471,376
1106938,367,469,376
1106939,365,472,376
1106940,366,472,375
1106941,365,469,376
1106942,367,469,376
1106943,367,470,375
1106944,366,470,375
1106945,366,470,376
1106946,368,473,377
1106947,368,473,379
1106948,370,475,379
1106949,370,475,381
1106950,370,474,381
1106951,369,472,381
1106952,369,471,378
1106953,367,467,377
1106954,366,467,375
1106955,364,466,373
1106956,366,468,374
1106957,365,469,375
1106958,367,471,377
1106959,367,473,377
1106960,368,474,378
1106961,366,471,377
1106962,365,466,376
1106963,364,466,376
1106964,367,464,375
1106965,364,461,374
1106966,364,461,374
1106967,364,459,371
1106968,363,463,373
1106969,363,462,371
1106970,361,461,372
1106971,362,461,371
1106972,360,460,370
1106973,361,463,371
1106974,363,466,372
1106975,363,467,372
1106976,365,470,373
1106977,363,469,374
1106978,365,467,375
1106979,365,466,375
1106980,363,464,372
1106981,362,462,371
1106982,361,462,372
1106983,361,460,373
1106984,362,458,372
1106985,363,461,371
1106986,364,462,373
1106987,362,468,371
1106988,362,466,374
1106989,364,469,374
1106990,365,470,375
1106991,367,469,376
1106992,365,470,374
1106993,367,468,376
1106994,366,467,375
1106995,364,464,374
1106996,364,465,373
1106997,364,468,373
1106998,365,472,375
1106999,365,469,373
1107000,365,465,374
1107001,365,466,373
1107002,367,464,374
1107003,363,463,374
1107004,364,467,373
1107005,367,467,375
1107006,366,468,375
1107007,366,467,376
1107008,365,468,375
1107009,365,467,376
1107010,364,463,375
1107011,362,461,374
1107012,362,456,371
1107013,360,456,369
1107014,359,453,366
1107015,356,448,364
1107016,354,449,363
1107017,352,448,363
1107018,352,448,362
1107019,353,451,362
1107020,352,450,361
1107021,353,451,363
1107022,354,451,364
1107023,356,453,365
1107024,354,459,365
1107025,356,454,364
1107026,356,449,365
1107027,355,453,363
1107028,356,451,365
1107029,355,450,364
1107030,353,447,362
1107031,354,445,362
1107032,350,443,359
1107033,348,442,359
1107034,347,441,358
1107035,347,438,355
1107036,346,436,353
1107037,345,439,354
1107038,345,439,353
1107039,344,437,354
1107040,344,433,351
1107041,344,436,352
1107042,344,438,352
1107043,344,436,353
1107044,344,438,352
1107045,343,438,353
1107046,345,440,354
1107047,346,442,357
1107048,347,444,357
1107049,350,447,359
1107050,350,452,359
1107051,353,455,362
1107052,354,455,364
1107053,354,454,365
1107054,354,451,362
1107055,354,447,361
1107056,349,443,359
1107057,347,441,356
1107058,346,438,356
1107059,344,435,353
1107060,343,434,352
1107061,342,431,349
1107062,341,431,351
1107063,341,432,350
1107064,342,436,350
1107065,344,438,353
1107066,346,439,353
1107067,346,440,354
1107068,346,443,355
1107069,346,441,356
1107070,347,440,355
1107071,347,439,355
1107072,345,440,353
1107073,345,437,355
1107074,344,438,353
1107075,343,436,352
1107076,344,438,352
1107077,343,438,352
1107078,344,437,353
1107079,342,435,352
1107080,341,434,351
1107081,344,433,350
1107082,342,431,352
1107083,342,430,350
1107084,341,430,349
1107085,342,431,350
1107086,340,433,350
1107087,341,434,352
1107088,343,434,352
1107089,343,435,350
1107090,343,436,349
1107091,344,436,353
1107092,345,439,352
1107093,345,440,353
1107094,345,442,354
1107095,345,441,355
1107096,344,438,355
1107097,344,438,354
1107098,344,435,353
1107099,343,431,352
1107100,340,431,348
1107101,341,429,347
1107102,339,428,346
1107103,339,428,347
1107104,339,428,347
1107105,338,428,347
1107106,340,430,346
1107107,340,430,346
1107108,339,429,348
1107109,339,428,349
1107110,340,431,349
1107111,340,430,349
1107112,340,432,349
1107113,340,433,349
1107114,340,430,348
1107115,341,433,347
1107116,339,432,348
1107117,340,434,347
1107118,341,435,350
1107119,342,437,349
1107120,344,442,353
1107121,346,447,355
1107122,348,448,358
1107123,347,448,359
1107124,349,444,358
1107125,349,443,358
1107126,350,440,358
1107127,348,439,356
1107128,346,437,357
1107129,348,438,356
1107130,348,439,355
1107131,348,443,356
1107132,348,443,356
1107133,348,443,357
1107134,349,446,357
1107135,349,447,358
1107136,350,446,358
1107137,349,442,357
1107138,349,441,357
1107139,348,443,355
1107140,348,443,357
1107141,348,442,356
1107142,348,439,358
1107143,347,440,358
1107144,349,443,358
1107145,347,442,358
1107146,347,441,358
1107147,347,441,357
1107148,346,439,357
1107149,347,437,355
1107150,347,441,356
1107151,345,440,355
1107152,345,441,356
1107153,347,440,356
1107154,346,438,355
1107155,348,439,354
1107156,345,437,353
1107157,345,437,353
1107158,344,436,351
1107159,344,434,351
1107160,344,437,351
1107161,342,436,350
1107162,342,437,351
1107163,344,437,352
1107164,343,436,353
1107165,343,438,352
1107166,342,435,352
1107167,343,436,353
1107168,344,438,352
1107169,344,439,353
1107170,346,442,354
1107171,345,445,356
1107172,348,448,357
1107173,349,452,358
1107174,350,451,360
1107175,350,450,362
1107176,352,450,360
1107177,349,446,359
1107178,349,444,359
1107179,348,442,359
1107180,349,441,355
1107181,347,440,356
1107182,347,440,356
1107183,346,441,356
1107184,346,442,357
1107185,348,441,356
1107186,348,441,357
1107187,348,439,357
1107188,347,441,356
1107189,348,441,356
1107190,346,442,355
1107191,346,440,356
1107192,347,441,356
1107193,347,440,357
1107194,346,440,355
1107195,346,441,355
1107196,347,442,356
1107197,347,441,354
1107198,346,442,355
1107199,346,440,356
1107200,347,443,355
1107201,345,443,355
1107202,349,443,357
1107203,347,443,357
1107204,348,444,357
1107205,348,442,356
1107206,349,440,358
1107207,347,440,356
1107208,347,440,357
1107209,347,441,356
1107210,347,443,356
1107211,347,444,358
1107212,349,445,358
1107213,351,449,359
1107214,350,449,359
1107215,353,449,361
1107216,353,450,361
1107217,350,447,360
1107218,350,445,361
1107219,349,445,359
1107220,349,444,357
1107221,349,444,358
1107222,349,446,358
1107223,350,445,359
1107224,350,445,358
1107225,349,444,360
1107226,349,445,358
1107227,349,445,358
1107228,349,444,358
1107229,349,443,358
1107230,350,442,358
1107231,348,442,357
1107232,348,442,356
1107233,346,440,356
1107234,348,442,356
1107235,349,444,357
1107236,347,442,357
1107237,348,444,359
1107238,349,448,358
1107239,349,448,359
1107240,350,447,358
1107241,350,447,360
1107242,351,447,360
1107243,351,448,360
1107244,352,448,360
1107245,352,449,360
1107246,353,451,361
1107247,353,453,362
1107248,353,456,365
1107249,356,457,365
1107250,355,451,366
1107251,355,452,366
1107252,354,451,364
1107253,354,451,363
1107254,353,449,363
1107255,354,449,361
1107256,352,446,361
1107257,350,446,357
1107258,349,445,359
1107259,350,444,358
1107260,350,445,357
1107261,349,441,356
1107262,348,443,357
1107263,350,441,358
1107264,349,446,359
1107265,349,445,357
1107266,349,445,358
1107267,350,443,359
1107268,350,444,359
1107269,350,447,360
1107270,351,449,360
1107271,353,447,361
1107272,354,450,362
1107273,354,452,363
1107274,354,454,364
1107275,354,455,364
1107276,356,455,365
1107277,355,456,364
1107278,356,456,366
1107279,357,458,364
1107280,356,458,366
1107281,356,455,366
1107282,356,451,364
1107283,356,453,365
1107284,356,449,364
1107285,356,452,366
1107286,356,451,366
1107287,356,455,366
1107288,356,453,365
1107289,356,453,365
1107290,355,454,365
1107291,356,453,366
1107292,357,449,364
1107293,355,453,364
1107294,356,454,364
1107295,356,451,363
1107296,354,453,363
1107297,356,456,365
1107298,357,456,366
1107299,353,452,364
1107300,354,450,362
1107301,353,447,362
1107302,352,446,361
1107303,353,447,361
1107304,351,442,359
1107305,350,441,360
1107306,350,444,360
1107307,350,445,360
1107308,350,444,358
1107309,350,442,360
1107310,350,443,358
1107311,348,445,357
1107312,350,444,359
1107313,348,446,358
1107314,349,446,357
1107315,351,446,358
1107316,349,449,360
1107317,352,447,358
1107318,349,447,359
1107319,350,447,358
1107320,350,444,358
1107321,350,446,359
1107322,351,445,359
1107323,350,443,357
1107324,350,447,359
1107325,350,446,359
1107326,351,447,362
1107327,352,450,360
1107328,353,449,362
1107329,352,450,362
1107330,353,451,363
1107331,353,452,363
1107332,355,454,364
1107333,355,451,364
1107334,355,451,362
1107335,355,451,364
1107336,354,451,363
1107337,354,450,362
1107338,354,449,363
1107339,352,445,362
1107340,353,448,360
1107341,353,449,360
1107342,352,448,361
1107343,353,449,362
1107344,354,449,363
1107345,354,450,363
1107346,355,449,365
1107347,354,451,363
1107348,356,453,364
1107349,356,452,365
1107350,357,452,366
1107351,357,457,368
1107352,358,460,369
1107353,361,464,369
1107354,362,467,372
1107355,363,469,373
1107356,363,467,373
1107357,364,466,373
1107358,362,461,371
1107359,361,456,369
1107360,358,453,367
1107361,355,451,367
1107362,356,451,366
1107363,356,451,365
1107364,354,450,364
1107365,354,447,363
1107366,353,446,362
1107367,353,448,362
1107368,351,449,362
1107369,352,450,360
1107370,354,453,362
1107371,353,454,363
1107372,355,455,363
1107373,354,452,364
1107374,354,451,363
1107375,354,453,362
1107376,352,447,362
1107377,350,445,360
1107378,350,443,358
1107379,347,440,358
1107380,348,442,358
1107381,347,444,356
1107382,350,441,355
1107383,347,444,357
1107384,349,444,357
1107385,349,445,359
1107386,350,445,359
1107387,350,447,359
1107388,351,452,361
1107389,353,451,361
1107390,353,451,363
1107391,353,450,365
1107392,353,451,361
1107393,356,451,363
1107394,354,451,363
1107395,353,451,362
1107396,353,451,362
1107397,354,453,364
1107398,353,455,365
1107399,356,453,365
1107400,356,455,366
1107401,356,455,365
1107402,357,454,366
1107403,357,452,365
1107404,355,454,366
1107405,354,451,365
1107406,354,450,363
1107407,353,448,363
1107408,353,450,362
1107409,354,449,363
1107410,354,450,364
1107411,352,452,363
1107412,353,451,362
1107413,355,455,362
1107414,356,454,366
1107415,358,459,364
1107416,358,460,367
1107417,358,457,367
1107418,359,459,368
1107419,357,456,367
1107420,356,454,365
1107421,356,453,366
1107422,356,453,365
1107423,355,452,364
1107424,355,451,363
1107425,355,451,364
1107426,355,450,362
1107427,353,445,364
1107428,354,449,362
1107429,354,449,363
1107430,353,450,363
1107431,354,451,362
1107432,354,453,363
1107433,355,453,363
1107434,355,453,365
1107435,354,452,363
1107436,355,453,365
1107437,355,452,363
1107438,353,456,364
1107439,355,456,364
1107440,356,454,364
1107441,356,453,364
1107442,355,452,365
1107443,355,449,363
1107444,354,451,363
1107445,353,453,362
1107446,355,456,365
1107447,357,459,367
1107448,359,462,369
1107449,362,464,370
1107450,361,461,373
1107451,362,463,372
1107452,360,458,371
1107453,359,455,369
1107454,358,452,368
1107455,357,456,365
1107456,358,458,366
1107457,360,459,367
1107458,357,459,367
1107459,359,458,367
1107460,357,458,367
1107461,358,457,366
1107462,357,453,366
1107463,356,454,367
1107464,357,452,364
1107465,356,451,365
1107466,355,448,366
1107467,354,452,363
1107468,356,452,365
1107469,355,456,366
1107470,358,458,367
1107471,358,460,368
1107472,359,460,368
1107473,358,458,369
1107474,359,457,368
1107475,358,456,368
1107476,357,453,366
1107477,355,450,364
1107478,356,451,362
1107479,354,447,364
1107480,355,448,362
1107481,353,450,361
1107482,353,451,361
1107483,353,452,362
1107484,353,452,364
1107485,354,449,364
1107486,353,451,363
1107487,355,451,363
1107488,354,451,363
1107489,354,452,365
1107490,353,450,364
1107491,353,450,363
1107492,355,453,363
1107493,355,452,364
1107494,356,452,363
1107495,353,452,361
1107496,355,451,363
1107497,354,452,363
1107498,355,454,363
1107499,354,452,364
1107500,355,455,364
1107501,356,455,363
1107502,356,453,365
1107503,355,452,365
1107504,355,451,365
1107505,356,450,364
1107506,356,452,366
1107507,357,454,366
1107508,357,453,366
1107509,357,455,365
1107510,356,453,366
1107511,355,453,366
1107512,355,452,364
1107513,355,453,365
1107514,357,453,364
1107515,354,452,363
1107516,354,453,364
1107517,353,452,364
1107518,353,451,363
1107519,353,450,362
1107520,353,450,361
1107521,353,452,363
1107522,354,450,363
1107523,355,454,363
1107524,355,452,365
1107525,355,452,366
1107526,356,453,366
1107527,356,455,367
1107528,357,455,366
1107529,358,456,368
1107530,357,456,368
1107531,358,456,368
1107532,358,457,369
1107533,360,462,368
1107534,361,464,370
1107535,361,460,371
1107536,361,460,370
1107537,360,462,371
1107538,361,461,371
1107539,361,460,370
1107540,360,457,367
1107541,357,457,368
1107542,357,455,368
1107543,358,456,367
1107544,358,454,368
1107545,357,454,366
1107546,358,452,365
1107547,356,453,365
1107548,357,453,366
1107549,356,451,364
1107550,354,449,364
1107551,354,451,363
1107552,354,450,363
1107553,354,448,363
1107554,354,448,362
1107555,353,450,361
1107556,353,451,363
1107557,354,454,363
1107558,354,453,363
1107559,354,454,363
1107560,355,453,363
1107561,354,453,364
1107562,354,452,363
1107563,354,450,362
1107564,354,449,364
1107565,353,448,362
1107566,352,449,360
1107567,353,448,362
1107568,352,448,361
1107569,352,445,360
1107570,352,447,360
1107571,352,448,362
1107572,351,451,362
1107573,352,453,361
1107574,354,453,362
1107575,355,457,363
1107576,356,458,366
1107577,358,459,367
1107578,358,458,367
1107579,357,455,366
1107580,356,451,365
1107581,355,451,363
1107582,353,450,364
1107583,352,447,361
1107584,353,448,363
1107585,352,446,362
1107586,352,448,362
1107587,352,452,363
1107588,355,458,365
1107589,356,459,367
1107590,357,460,368
1107591,359,460,368
1107592,358,457,367
1107593,358,454,367
1107594,356,451,365
1107595,354,447,364
1107596,354,448,364
1107597,353,447,362
1107598,351,445,360
1107599,351,447,360
1107600,350,450,360
1107601,349,445,358
1107602,351,446,360
1107603,351,447,361
1107604,351,447,361
1107605,353,450,363
1107606,355,451,364
1107607,354,452,363
1107608,353,451,362
1107609,352,450,363
1107610,352,450,361
1107611,353,447,363
1107612,352,448,361
1107613,353,450,362
1107614,354,449,362
1107615,349,447,360
1107616,351,449,362
1107617,352,448,360
1107618,351,447,360
1107619,351,447,360
1107620,352,448,360
1107621,352,448,359
1107622,352,451,361
1107623,354,451,361
1107624,354,452,361
1107625,355,452,363
1107626,355,453,364
1107627,354,452,364
1107628,355,451,363
1107629,354,449,362
1107630,353,450,362
1107631,353,449,363
1107632,353,449,362
1107633,352,449,360
1107634,352,450,362
1107635,353,448,362
1107636,351,451,360
1107637,351,450,362
1107638,353,452,362
1107639,353,448,362
1107640,354,451,361
1107641,352,451,363
1107642,353,451,363
1107643,352,450,363
1107644,354,451,363
1107645,354,451,363
1107646,355,451,364
1107647,352,453,364
1107648,355,450,364
1107649,356,451,366
1107650,355,451,364
1107651,356,455,366
1107652,355,454,364
1107653,356,453,366
1107654,356,455,365
1107655,356,456,364
1107656,355,454,364
1107657,355,455,363
1107658,358,456,365
1107659,358,459,367
1107660,359,458,368
1107661,359,459,368
1107662,359,458,368
1107663,359,459,368
1107664,360,457,369
1107665,361,461,369
1107666,359,460,370
1107667,359,459,369
1107668,359,457,369
1107669,360,457,369
1107670,359,456,370
1107671,358,454,368
1107672,358,452,367
1107673,356,453,367
1107674,355,456,365
1107675,356,456,365
1107676,357,456,366
1107677,357,457,365
1107678,357,455,365
1107679,358,456,365
1107680,356,454,366
1107681,355,453,365
1107682,354,451,364
1107683,354,450,364
1107684,354,450,363
1107685,353,449,361
1107686,355,450,363
1107687,355,450,363
1107688,354,448,363
1107689,354,452,363
1107690,353,451,362
1107691,355,453,363
1107692,356,455,363
1107693,356,452,366
1107694,356,457,365
1107695,357,453,365
1107696,355,456,366
1107697,357,453,365
1107698,357,455,365
1107699,355,454,365
1107700,356,455,364
1107701,356,455,365
1107702,357,453,365
1107703,356,453,365
1107704,356,454,366
1107705,357,453,366
1107706,357,454,365
1107707,355,454,366
1107708,358,454,364
1107709,356,453,366
1107710,357,455,366
1107711,358,457,367
1107712,357,457,367
1107713,357,462,367
1107714,360,463,368
1107715,359,460,369
1107716,360,461,367
1107717,359,459,367
1107718,359,456,366
1107719,358,455,367
1107720,357,453,365
1107721,356,454,365
1107722,357,454,365
1107723,356,456,366
1107724,358,457,367
1107725,358,457,367
1107726,357,456,367
1107727,357,455,365
1107728,358,454,367
1107729,358,454,366
1107730,357,453,366
1107731,355,454,365
1107732,358,455,366
1107733,358,458,367
1107734,359,462,369
1107735,362,468,371
1107736,363,471,373
1107737,366,475,375
1107738,366,475,375
1107739,368,474,376
1107740,367,471,378
1107741,367,462,376
1107742,365,462,375
1107743,364,459,374
1107744,359,456,370
1107745,361,455,370
1107746,359,457,370
1107747,359,457,370
1107748,359,458,370
1107749,359,459,369
1107750,359,461,369
1107751,359,461,370
1107752,360,462,370
1107753,361,460,371
1107754,361,459,369
1107755,360,461,370
1107756,359,462,370
1107757,360,463,370
1107758,362,463,369
1107759,360,460,371
1107760,359,459,369
1107761,360,458,367
1107762,360,458,367
1107763,360,457,368
1107764,358,458,367
1107765,358,457,367
1107766,357,460,366
1107767,358,456,367
1107768,357,455,367
1107769,358,454,368
1107770,357,455,367
1107771,357,456,366
1107772,356,454,366
1107773,356,454,366
1107774,357,457,366
1107775,356,451,365
1107776,356,453,364
1107777,354,450,364
1107778,353,450,361
1107779,354,451,363
1107780,353,451,363
1107781,354,451,364
1107782,355,453,364
1107783,354,459,364
1107784,355,455,364
1107785,357,456,367
1107786,358,455,367
1107787,357,453,367
1107788,358,457,367
1107789,358,454,366
1107790,355,457,367
1107791,357,455,366
1107792,357,456,367
1107793,356,457,365
1107794,354,455,365
1107795,356,457,366
1107796,358,458,367
1107797,358,458,365
1107798,358,456,365
1107799,357,456,365
1107800,357,455,367
1107801,357,452,365
1107802,356,452,366
1107803,354,452,364
1107804,355,450,364
1107805,353,452,363
1107806,353,454,364
1107807,357,454,365
1107808,357,454,364
1107809,358,457,367
1107810,359,460,367
1107811,360,460,368
1107812,360,461,370
1107813,362,462,370
1107814,361,465,371
1107815,361,466,373
1107816,363,467,374
1107817,363,469,374
1107818,364,468,373
1107819,363,469,374
1107820,364,466,373
1107821,364,462,372
1107822,363,460,371
1107823,360,460,370
1107824,361,456,369
1107825,360,458,369
1107826,359,458,369
1107827,358,458,369
1107828,360,457,368
1107829,360,461,371
1107830,360,462,371
1107831,361,463,372
1107832,361,463,370
1107833,361,464,373
1107834,361,464,371
1107835,361,459,370
1107836,362,460,369
1107837,360,457,368
1107838,359,456,369
1107839,356,455,367
1107840,357,456,366
1107841,357,453,366
1107842,357,453,366
1107843,358,451,365
1107844,358,454,366
1107845,356,454,366
1107846,357,450,366
1107847,356,453,365
1107848,357,453,365
1107849,357,453,365
1107850,356,454,365
1107851,357,455,366
1107852,357,455,366
1107853,358,458,367
1107854,357,455,367
1107855,357,455,367
1107856,356,454,367
1107857,356,453,364
1107858,354,451,363
1107859,354,452,364
1107860,355,454,364
1107861,354,453,365
1107862,355,454,364
1107863,356,456,365
1107864,357,457,366
1107865,359,460,368
1107866,361,464,371
1107867,361,463,372
1107868,363,464,372
1107869,363,462,372
1107870,363,464,371
1107871,363,463,372
1107872,361,463,371
1107873,363,463,372
1107874,361,462,371
1107875,360,463,371
1107876,362,460,370
1107877,360,461,369
1107878,359,460,368
1107879,358,455,368
1107880,356,457,367
1107881,359,458,368
1107882,359,459,369
1107883,359,460,368
1107884,361,460,369
1107885,362,464,371
1107887,363,467,373
1107888,364,472,376
1107889,367,473,376
1107890,367,472,379
1107891,368,473,379
1107892,369,471,380
1107893,367,473,378
1107894,369,472,381
1107894,369,472,379
1107895,370,470,378
1107896,368,471,378
1107897,368,469,377
1107898,368,470,377
1107899,367,467,377
1107900,367,467,374
1107901,364,463,374
1107902,364,462,375
1107903,364,461,374
1107904,362,459,374
1107905,364,460,372
1107906,362,460,370
1107907,363,461,372
1107908,359,460,370
1107909,362,460,372
1107910,362,462,370
1107911,361,463,371
1107912,362,462,371
1107913,361,462,372
1107914,363,461,371
1107915,361,461,371
1107916,360,460,371
1107917,360,460,369
1107918,360,463,372
1107919,362,463,371
1107920,361,463,370
1107921,360,460,372
1107922,362,460,371
1107923,362,460,371
1107924,361,462,371
1107925,363,461,371
1107926,362,462,373
1107927,363,459,372
1107928,362,466,372
1107929,363,466,373
1107930,364,467,375
1107931,366,466,375
1107932,365,467,377
1107933,366,466,375
1107934,366,467,375
1107935,365,468,375
1107936,367,469,375
1107937,366,469,374
1107938,365,470,376
1107939,366,469,377
1107940,365,471,376
1107941,366,467,377
1107942,367,471,376
1107943,366,468,377
1107944,368,471,378
1107945,369,472,378
1107946,369,474,380
1107947,372,477,380
1107948,372,478,384
1107949,374,478,383
1107950,373,481,384
1107951,374,481,384
1107952,374,482,385
1107953,376,482,385
1107954,374,482,385
1107955,376,483,386
1107956,375,483,387
1107957,376,483,385
1107958,376,479,385
1107959,374,483,386
1107960,374,481,384
1107961,376,481,386
1107962,376,482,385
1107963,375,481,385
1107964,375,481,385
1107965,376,478,385
1107966,375,482,384
1107967,374,479,385
1107968,376,478,384
1107969,373,479,383
1107970,373,479,383
1107971,372,478,383
1107972,374,477,384
1107973,372,478,383
1107974,372,478,383
1107975,373,476,382
1107976,371,476,381
1107977,370,475,380
1107978,371,475,381
1107979,372,474,380
1107980,370,472,379
1107981,371,474,379
1107982,370,472,379
1107983,370,472,379
1107984,370,472,380
1107985,368,473,380
1107986,371,472,380
1107987,369,473,379
1107988,371,474,380
1107989,371,474,381
1107990,370,474,380
1107991,369,474,381
1107992,371,474,380
1107993,369,476,381
1107994,370,476,382
1107995,371,474,380
1107996,371,477,381
1107997,369,477,381
1107998,373,477,382
1107999,371,477,379
1108000,371,476,380
1108001,371,476,380
1108002,370,476,380
1108003,370,474,381
1108004,370,474,380
1108005,370,473,380
1108006,370,474,381
1108007,370,474,380
1108008,372,476,382
1108009,371,471,380
1108010,371,475,382
1108011,373,475,381
1108012,371,474,381
1108013,371,475,381
1108014,369,477,382
1108015,371,478,381
1108016,372,479,380
1108017,372,480,382
1108018,374,479,384
1108019,374,481,384
1108020,373,480,384
1108021,375,482,384
1108022,374,482,384
1108023,375,481,384
1108024,375,480,384
1108025,375,479,386
1108026,375,477,385
1108027,375,477,385
1108028,374,476,384
1108029,374,477,383
1108030,374,477,383
1108031,373,478,383
1108032,372,476,383
1108033,372,476,382
1108034,372,475,381
1108035,371,477,380
1108036,370,473,381
1108037,369,473,379
1108038,368,475,377
1108039,369,470,378
1108040,368,472,379
1108041,370,471,378
1108042,367,471,377
1108043,367,470,378
1108044,368,471,378
1108045,368,471,379
1108046,369,471,380
1108047,367,471,378
1108048,369,470,378
1108049,369,473,380
1108050,371,471,378
1108051,370,473,380
1108052,371,471,379
1108053,370,474,379
1108054,370,473,380
1108055,369,475,380
1108056,370,475,380
1108057,370,472,380
1108058,369,475,381
1108059,370,474,379
1108060,372,475,379
1108061,370,474,380
1108062,371,474,380
1108063,370,473,380
1108064,369,472,379
1108065,370,472,379
1108066,369,471,379
1108067,369,472,380
1108068,370,473,381
1108069,371,475,382
1108070,372,473,381
1108071,370,477,382
1108072,373,476,382
1108073,372,476,382
1108074,371,477,382
1108075,368,474,380
1108076,371,471,380
1108077,370,473,379
1108078,368,472,377
1108079,368,467,378
1108080,368,469,377
1108081,367,470,375
1108082,368,467,375
1108083,366,468,375
1108084,366,467,375
1108085,367,467,376
1108086,367,468,376
1108087,366,467,376
1108088,366,467,376
1108089,366,465,376
1108090,365,467,376
1108091,366,468,376
1108092,367,464,376
1108093,365,467,375
1108094,367,470,375
1108095,366,468,374
1108096,366,468,375
1108097,366,468,376
1108098,366,466,374
1108099,364,468,374
1108100,365,468,374
1108101,365,465,376
1108102,365,466,375
1108103,364,466,375
1108104,366,465,374
1108105,365,468,374
1108106,366,466,375
1108107,366,467,375
1108108,367,468,376
1108109,366,470,376
1108110,366,467,376
1108111,367,468,375
1108112,367,470,376
1108113,367,471,376
1108114,366,467,376
1108115,366,471,376
1108116,367,468,374
1108117,365,469,376
1108118,366,470,377
1108119,366,471,376
1108120,366,469,377
1108121,368,469,376
1108122,366,471,376
1108123,368,471,378
1108124,368,470,378
1108125,368,469,377
1108126,368,470,378
1108127,368,471,379
1108128,369,470,380
1108129,368,473,379
1108130,369,471,378
1108131,368,471,379
1108132,367,469,378
1108133,367,472,377
1108134,367,472,378
1108135,368,471,378
1108136,366,472,378
1108137,367,469,377
1108138,365,470,376
1108139,367,470,375
1108140,366,465,376
1108141,367,469,376
1108142,367,467,376
1108143,366,468,375
1108144,366,467,377
1108145,364,469,375
1108146,365,469,375
1108147,367,467,377
1108148,368,470,377
1108149,367,470,377
1108150,368,472,378
1108151,369,472,378
1108152,368,472,378
1108153,369,475,379
1108154,370,474,379
1108155,370,474,379
1108156,370,475,379
1108157,370,472,379
1108158,369,474,379
1108159,370,474,380
1108160,368,473,379
1108161,367,471,378
1108162,369,471,379
1108163,369,469,378
1108164,369,468,377
1108165,367,470,379
1108166,368,472,377
1108167,369,472,379
1108168,370,473,378
1108169,370,472,379
1108170,369,471,378
1108171,370,472,379
1108172,369,473,379
1108173,369,473,378
1108174,369,472,379
1108175,369,472,378
1108176,370,472,379
1108177,368,470,379
1108178,368,472,378
1108179,367,471,377
1108180,367,472,377
1108181,368,470,378
1108182,368,468,377
1108183,367,470,376
1108184,367,468,377
1108185,366,466,376
1108186,365,467,376
1108187,366,467,376
1108188,365,467,377
1108189,366,467,375
1108190,366,466,375
1108191,365,468,375
1108192,365,468,375
1108193,365,467,375
1108194,365,467,375
1108195,365,466,375
1108196,364,466,373
1108197,366,463,373
1108198,362,466,372
1108199,364,464,372
1108200,363,463,372
1108201,361,463,371
1108202,361,462,370
1108203,361,462,370
1108204,361,460,371
1108205,363,462,371
1108206,363,461,371
1108207,363,462,371
1108208,362,462,371
1108209,364,464,373
1108210,364,463,372
1108211,361,463,372
1108212,363,464,373
1108213,361,463,372
1108214,363,462,372
1108215,361,463,372
1108216,361,463,373
1108217,361,462,372
1108218,361,462,371
1108219,361,467,371
1108220,363,461,371
1108221,361,461,371
1108222,361,461,372
1108223,361,458,371
1108224,362,460,371
1108225,362,462,373
1108226,362,462,371
1108227,362,463,374
1108228,361,461,373
1108229,362,462,372
1108230,361,463,372
1108231,363,462,371
1108232,361,465,373
1108233,362,462,372
1108234,361,463,373
1108235,362,463,371
1108236,362,463,373
1108237,362,464,369
1108238,362,460,372
1108239,361,463,371
1108240,361,461,371
1108241,361,460,371
1108242,361,461,370
1108243,361,458,371
1108244,361,461,370
1108245,361,461,371
1108246,360,459,370
1108247,361,460,371
1108248,360,460,371
1108249,360,460,370
1108250,360,460,371
1108251,361,461,370
1108252,361,463,370
1108253,361,462,371
1108254,361,461,370
1108255,361,461,371
1108256,361,462,370
1108257,360,460,369
1108258,359,461,369
1108259,361,460,369
1108260,360,458,368
1108261,359,460,368
1108262,358,460,367
1108263,359,457,368
1108264,359,459,368
1108265,359,459,368
1108266,359,457,368
1108267,359,459,368
1108268,360,458,370
1108269,360,459,370
1108270,361,457,370
1108271,360,459,370
1108272,360,459,369
1108273,361,461,371
1108274,359,460,369
1108275,360,460,369
1108276,360,462,370
1108277,359,461,368
1108278,360,459,368
1108279,360,460,368
1108280,360,458,368
1108281,360,458,368
1108282,359,459,368
1108283,359,460,369
1108284,358,457,368
1108285,358,458,369
1108286,360,457,370
1108287,359,460,369
1108288,359,458,369
1108289,360,459,369
1108290,360,460,371
1108291,361,457,369
1108292,359,460,370
1108293,359,462,369
1108294,361,461,372
1108295,362,462,370
1108296,360,460,370
1108297,362,456,370
1108298,361,461,369
1108299,360,460,370
1108300,361,460,370
1108301,360,460,370
1108302,361,460,369
1108303,360,460,369
1108304,361,459,369
1108305,360,460,369
1108306,360,460,370
1108307,359,461,369
1108308,361,461,371
1108309,363,462,373
1108310,361,461,371
1108311,361,462,372
1108312,362,464,371
1108313,362,464,372
1108314,361,461,372
1108315,361,463,371
1108316,363,462,370
1108317,360,464,371
1108318,362,463,372
1108319,361,462,371
1108320,362,461,371
1108321,361,463,371
1108322,361,463,371
1108323,362,460,372
1108324,362,463,372
1108325,363,463,372
1108326,361,461,372
1108327,363,461,374
1108328,363,463,373
1108329,365,463,373
1108330,362,464,372
1108331,364,464,371
1108332,364,462,373
1108333,364,463,374
1108334,363,466,373
1108335,363,464,371
1108336,363,466,371
1108337,362,464,372
1108338,364,465,374
1108339,361,464,371
1108340,363,464,373
1108341,365,465,373
1108342,365,467,374
1108343,365,466,374
1108344,365,466,374
1108345,366,465,374
1108346,366,467,375
1108347,365,466,375
1108348,364,468,377
1108349,366,463,376
1108350,365,465,375
1108351,364,466,373
1108352,366,468,375
1108353,363,467,373
1108354,365,467,375
1108355,364,466,373
1108356,364,466,375
1108357,364,464,374
1108358,363,465,372
1108359,363,465,372
1108360,362,463,372
1108361,362,463,372
1108362,361,463,372
1108363,362,465,372
1108364,361,462,372
1108365,362,463,372
1108366,362,463,373
1108367,364,464,373
1108368,362,463,374
1108369,364,465,372
1108370,363,465,375
1108371,363,464,374
1108372,364,467,375
1108373,364,468,374
1108374,364,468,375
1108375,365,468,375
1108376,366,466,376
1108377,366,468,375
1108378,363,470,377
1108379,365,469,375
1108380,365,472,376
1108381,367,472,376
1108382,367,471,377
1108383,368,471,378
1108384,369,472,379
1108385,369,471,378
1108386,369,470,379
1108387,369,472,380
1108388,369,470,379
1108389,368,469,377
1108390,367,470,378
1108391,368,471,377
1108392,367,470,377
1108393,368,469,377
1108394,368,469,375
1108395,367,468,376
1108396,367,467,376
1108397,365,467,374
1108398,365,466,374
1108399,366,466,374
1108400,365,465,375
1108401,364,466,374
1108402,363,465,373
1108403,365,465,373
1108404,364,466,372
1108405,363,466,372
1108406,364,466,374
1108407,365,465,374
1108408,364,464,375
1108409,364,467,375
1108410,365,467,375
1108411,364,467,373
1108412,364,466,374
1108413,365,462,373
1108414,363,466,374
1108415,363,467,373
1108416,363,466,373
1108417,364,466,373
1108418,365,464,374
1108419,364,464,373
1108420,363,463,371
1108421,361,463,371
1108422,361,461,372
1108423,363,459,371
1108424,362,463,372
1108425,363,461,372
1108426,364,463,372
1108427,363,461,373
1108428,363,465,373
1108429,364,464,373
1108430,364,462,371
1108431,364,464,374
1108432,364,464,372
1108433,364,465,374
1108434,364,465,373
1108435,363,464,374
1108436,363,465,374
1108437,362,465,373
1108438,361,464,370
1108439,361,463,371
1108440,361,462,371
1108441,360,462,371
1108442,362,462,372
1108443,360,462,371
1108444,362,462,371
1108445,361,462,371
1108446,362,463,372
1108447,363,461,373
1108448,361,463,372
1108449,364,464,374
1108450,364,462,374
1108451,364,466,374
1108452,363,464,374
1108453,363,464,371
1108454,362,464,375
1108455,364,465,372
