Time (ms),Bicep,Shoulder,Tricep
1477672,363,465,373
1477673,364,467,375
1477674,364,466,374
1477675,365,466,373
1477676,365,466,374
1477677,364,466,375
1477678,363,464,373
1477679,363,463,371
1477680,363,461,372
1477681,361,464,371
1477682,363,463,372
1477683,361,463,371
1477684,363,460,371
1477685,363,462,373
1477686,363,465,373
1477687,363,463,371
1477688,364,464,372
1477689,364,464,373
1477690,362,464,374
1477691,364,465,373
1477692,363,465,373
1477693,363,466,373
1477694,364,465,373
1477695,364,465,373
1477696,364,465,373
1477697,363,467,372
1477698,364,465,373
1477699,362,465,372
1477700,362,463,371
1477701,361,467,371
1477702,361,463,369
1477703,361,462,370
1477704,362,461,371
1477705,362,462,372
1477706,362,462,372
1477707,363,462,374
1477708,363,462,372
1477709,364,463,375
1477710,363,462,375
1477711,363,465,374
1477712,364,466,374
1477713,364,465,373
1477714,363,467,373
1477715,364,463,373
1477716,363,463,372
1477717,363,467,371
1477718,363,466,371
1477719,362,466,371
1477720,362,464,371
1477721,363,462,371
1477722,361,461,370
1477723,362,463,370
1477724,362,462,371
1477725,361,460,373
1477726,363,463,373
1477727,363,463,374
1477728,363,462,374
1477729,363,464,374
1477730,364,464,374
1477731,363,466,373
1477732,365,462,374
1477733,363,466,374
1477734,363,467,374
1477735,364,465,373
1477736,362,464,370
1477737,362,465,372
1477738,362,464,371
1477739,362,464,371
1477740,360,463,369
1477741,360,465,371
1477742,360,464,370
1477743,361,462,370
1477744,361,461,370
1477745,361,462,371
1477746,363,461,372
1477747,364,463,372
1477748,361,463,374
1477749,362,464,373
1477750,364,463,373
1477751,364,463,373
1477752,365,462,373
1477753,364,463,373
1477754,363,463,373
1477755,363,465,372
1477756,362,464,373
1477757,362,464,372
1477758,362,464,372
1477759,361,463,370
1477760,363,463,371
1477761,362,462,370
1477762,362,461,372
1477763,362,463,371
1477764,362,460,371
1477765,362,463,372
1477766,362,463,373
1477767,363,459,372
1477768,363,463,372
1477769,362,462,373
1477770,362,463,374
1477771,363,464,374
1477772,363,463,373
1477773,362,465,374
1477774,363,465,374
1477775,364,462,372
1477776,364,466,372
1477777,362,465,371
1477778,362,464,369
1477779,362,463,372
1477780,363,462,369
1477781,362,462,371
1477782,362,458,372
1477783,361,462,371
1477784,361,462,371
1477785,362,458,371
1477786,361,461,371
1477787,362,461,372
1477788,363,462,372
1477789,362,464,372
1477790,361,463,371
1477791,364,465,374
1477792,362,465,373
1477793,363,465,374
1477794,361,465,372
1477795,363,465,374
1477796,364,463,372
1477797,361,464,371
1477798,361,464,371
1477799,360,463,369
1477800,360,461,369
1477801,361,462,370
1477802,360,462,370
1477803,360,460,370
1477804,361,461,371
1477805,361,460,372
1477806,361,458,371
1477807,361,463,371
1477808,361,460,372
1477809,363,464,373
1477810,361,464,374
1477811,364,463,374
1477812,362,465,373
1477813,363,463,372
1477814,363,462,372
1477815,362,465,372
1477816,363,459,371
1477817,362,465,371
1477818,361,463,372
1477819,361,462,370
1477820,359,463,369
1477821,360,462,370
1477822,362,461,370
1477823,361,460,370
1477824,361,460,371
1477825,360,460,371
1477826,361,460,371
1477827,361,462,372
1477828,362,461,372
1477829,362,463,373
1477830,362,462,372
1477831,363,461,374
1477832,364,465,373
1477833,364,461,373
1477834,363,465,372
1477835,363,464,372
1477836,364,461,372
1477837,361,464,370
1477838,361,461,371
1477839,361,463,370
1477840,360,463,370
1477841,361,462,370
1477842,359,459,368
1477843,360,461,370
1477844,360,460,371
1477845,361,460,371
1477846,361,461,372
1477847,361,461,372
1477848,363,462,373
1477849,362,460,372
1477850,362,464,373
1477851,361,462,373
1477852,362,463,372
1477853,364,465,373
1477854,362,463,372
1477855,361,466,371
1477856,362,464,370
1477857,361,463,371
1477858,361,464,371
1477859,361,463,369
1477860,362,460,370
1477861,361,461,370
1477862,360,460,371
1477863,361,462,369
1477864,361,460,371
1477865,361,462,370
1477866,361,461,371
1477867,362,462,370
1477868,361,464,371
1477869,361,462,373
1477870,362,462,373
1477871,362,463,373
1477872,363,463,372
1477873,362,463,372
1477874,362,463,372
1477875,361,464,371
1477876,361,464,371
1477877,363,463,369
1477878,361,465,370
1477879,361,462,370
1477880,360,463,370
1477881,360,463,369
1477882,360,461,370
1477883,361,459,370
1477884,360,461,371
1477885,362,461,371
1477886,360,462,372
1477887,362,462,370
1477888,362,461,372
1477889,363,462,373
1477890,362,464,374
1477891,363,463,372
1477892,363,464,375
1477893,364,464,373
1477894,363,465,372
1477895,363,465,372
1477896,363,464,373
1477897,361,463,371
1477898,363,462,371
1477899,362,463,370
1477900,361,463,370
1477901,361,462,371
1477902,360,461,369
1477903,361,463,370
1477904,362,462,369
1477905,362,461,371
1477906,361,460,372
1477907,362,462,371
1477908,361,462,373
1477909,363,463,373
1477910,360,463,372
1477911,363,464,372
1477912,364,465,374
1477913,364,465,374
1477914,363,465,372
1477915,362,464,373
1477916,363,464,372
1477917,364,463,371
1477918,361,463,371
1477919,362,461,370
1477920,361,463,370
1477921,361,462,369
1477922,360,459,369
1477923,360,462,369
1477924,361,461,371
1477925,361,460,371
1477926,362,461,372
1477927,361,461,371
1477928,362,462,371
1477929,363,464,372
1477930,363,463,372
1477931,363,463,373
1477932,363,465,372
1477933,363,463,374
1477934,362,466,372
1477935,362,464,372
1477936,361,463,371
1477937,362,464,372
1477938,360,463,370
1477939,361,462,371
1477940,360,462,371
1477941,361,463,372
1477942,360,461,370
1477943,360,460,370
1477944,361,460,370
1477945,361,461,371
1477946,361,458,372
1477947,361,461,371
1477948,361,462,372
1477949,363,460,373
1477950,362,461,373
1477951,364,462,374
1477952,364,462,374
1477953,362,465,374
1477954,363,464,374
1477955,362,459,372
1477956,362,463,373
1477957,360,465,371
1477958,361,462,369
1477959,360,464,371
1477960,360,462,370
1477961,361,462,370
1477962,359,459,369
1477963,360,461,371
1477964,361,460,369
1477965,361,460,371
1477966,362,462,371
1477967,362,460,372
1477968,363,460,373
1477969,362,461,372
1477970,362,461,373
1477971,364,463,373
1477972,364,465,374
1477973,364,465,374
1477974,363,463,372
1477975,363,465,374
1477976,363,462,372
1477977,362,463,372
1477978,362,464,371
1477979,362,463,371
1477980,360,464,370
1477981,361,462,370
1477982,361,462,371
1477983,360,462,369
1477984,362,461,373
1477985,359,461,371
1477986,362,459,372
1477987,362,460,372
1477988,363,462,372
1477989,362,462,374
1477990,363,464,373
1477991,363,462,372
1477992,363,465,374
1477993,363,462,372
1477994,363,465,372
1477995,364,460,372
1477996,361,462,372
1477997,363,465,371
1477998,361,463,370
1477999,359,463,371
1478000,361,463,370
1478001,360,459,369
1478002,361,461,369
1478003,361,459,370
1478004,361,455,370
1478005,361,461,371
1478006,361,461,370
1478007,361,462,372
1478008,363,461,372
1478009,363,461,373
1478010,363,464,372
1478011,362,464,372
1478012,363,465,373
1478013,361,464,372
1478014,362,462,372
1478015,361,465,371
1478016,362,464,372
1478017,361,465,370
1478018,361,464,370
1478019,362,464,370
1478020,361,463,370
1478021,360,462,371
1478022,361,463,371
1478023,360,462,368
1478024,361,460,371
1478025,361,459,369
1478026,361,460,372
1478027,363,461,373
1478028,362,461,372
1478029,363,464,372
1478030,363,463,373
1478031,363,463,374
1478032,364,464,372
1478033,364,466,373
1478034,363,464,373
1478035,363,464,373
1478036,363,464,372
1478037,363,464,372
1478038,363,463,372
1478039,363,464,370
1478040,362,462,369
1478041,361,461,370
1478042,362,465,369
1478043,361,461,369
1478044,361,461,369
1478045,359,461,370
1478046,362,462,369
1478047,361,459,371
1478048,364,461,372
1478049,362,461,372
1478050,363,463,373
1478051,363,462,374
1478052,362,464,374
1478053,363,463,372
1478054,362,463,374
1478055,361,463,372
1478056,364,460,371
1478057,363,465,372
1478058,360,462,370
1478059,362,459,369
1478060,360,462,369
1478061,361,462,369
1478062,361,459,369
1478063,359,460,368
1478064,361,461,370
1478065,360,459,369
1478066,360,460,368
1478067,361,461,371
1478068,361,460,371
1478069,361,462,372
1478070,361,460,371
1478071,362,462,373
1478072,361,463,372
1478073,362,463,374
1478074,361,463,373
1478075,361,463,372
1478076,362,461,371
1478077,362,460,369
1478078,362,462,371
1478079,361,462,369
1478080,360,461,369
1478081,359,459,370
1478082,359,460,369
1478083,360,456,371
1478084,360,457,370
1478085,359,459,370
1478086,361,459,370
1478087,361,458,370
1478088,361,461,372
1478089,361,462,371
1478090,361,461,371
1478091,361,461,373
1478092,362,462,372
1478093,362,458,371
1478094,362,463,371
1478095,361,460,372
1478096,362,463,371
1478097,361,460,369
1478098,359,461,369
1478099,358,460,368
1478100,359,460,367
1478101,359,461,369
1478102,358,460,368
1478103,360,458,369
1478104,359,459,368
1478105,360,459,369
1478106,359,458,369
1478107,359,458,370
1478108,361,460,370
1478109,359,455,371
1478110,363,458,372
1478111,361,459,371
1478112,362,461,371
1478113,361,460,370
1478114,361,460,370
1478115,361,462,368
1478116,360,461,369
1478117,360,460,370
1478118,360,458,368
1478119,360,459,370
1478120,359,460,368
1478121,358,458,368
1478122,358,458,368
1478123,358,459,369
1478124,357,457,368
1478125,358,457,367
1478126,359,457,368
1478127,359,457,369
1478128,359,460,369
1478129,359,457,370
1478130,360,460,370
1478131,360,459,371
1478132,361,460,372
1478133,360,462,371
1478134,360,462,371
1478135,362,461,369
1478136,360,460,369
1478137,360,460,368
1478138,360,460,369
1478139,359,460,367
1478140,359,457,368
1478141,358,461,368
1478142,358,459,368
1478143,358,458,367
1478144,358,457,368
1478145,359,458,369
1478146,359,459,370
1478147,360,458,371
1478148,360,457,370
1478149,361,460,370
1478150,360,460,371
1478151,360,460,369
1478152,361,461,372
1478153,360,460,370
1478154,362,458,369
1478155,361,461,370
1478156,361,461,369
1478157,360,459,368
1478158,358,458,368
1478159,359,461,368
1478160,357,458,367
1478161,358,458,368
1478162,359,455,367
1478163,357,453,368
1478164,357,457,368
1478165,360,457,368
1478166,360,458,368
1478167,360,458,368
1478168,360,460,370
1478169,360,456,371
1478170,362,460,371
1478171,360,461,371
1478172,360,462,371
1478173,361,462,371
1478174,360,461,369
1478175,361,458,370
1478176,359,459,370
1478177,361,461,369
1478178,358,460,366
1478179,358,460,368
1478180,357,458,368
1478181,358,459,367
1478182,357,458,367
1478183,358,458,367
1478184,358,457,368
1478185,360,459,367
1478186,360,459,370
1478187,358,459,370
1478188,360,458,369
1478189,361,459,372
1478190,362,460,371
1478191,361,461,372
1478192,361,458,372
1478193,361,461,371
1478194,361,459,369
1478195,360,462,369
1478196,360,461,369
1478197,359,462,368
1478198,359,459,369
1478199,359,460,368
1478200,358,462,368
1478201,359,458,369
1478202,357,458,368
1478203,359,457,368
1478204,359,460,369
1478205,360,459,369
1478206,360,457,369
1478207,360,459,369
1478208,361,459,371
1478209,362,460,371
1478210,360,459,370
1478211,361,461,371
1478212,361,461,370
1478213,359,462,371
1478214,361,461,370
1478215,361,461,370
1478216,361,462,369
1478217,360,460,369
1478218,360,459,369
1478219,359,460,368
1478220,359,456,368
1478221,361,458,368
1478222,358,458,368
1478223,359,456,369
1478224,360,457,368
1478225,358,457,369
1478226,358,458,369
1478227,359,459,368
1478228,361,458,370
1478229,360,458,371
1478230,362,457,372
1478231,361,462,370
1478232,361,461,371
1478233,360,460,370
1478234,361,460,370
1478235,360,462,370
1478236,359,461,367
1478237,359,460,369
1478238,359,459,367
1478239,357,458,367
1478240,359,459,368
1478241,358,459,368
1478242,359,457,367
1478243,357,458,368
1478244,355,459,368
1478245,360,458,368
1478246,359,459,370
1478247,359,460,369
1478248,359,457,369
1478249,360,459,370
1478250,361,460,371
1478251,363,461,372
1478252,362,461,370
1478253,361,462,370
1478254,361,463,371
1478255,360,461,370
1478256,362,461,369
1478257,359,463,369
1478258,359,461,367
1478259,358,460,367
1478260,358,459,367
1478261,359,458,368
1478262,360,459,369
1478263,358,455,368
1478264,358,458,367
1478265,359,458,369
1478266,361,458,369
1478267,359,457,370
1478268,360,458,370
1478269,359,459,371
1478270,361,461,371
1478271,361,462,371
1478272,359,461,371
1478273,360,461,369
1478274,361,463,370
1478275,361,459,369
1478276,360,463,367
1478277,360,464,370
1478278,358,457,367
1478279,358,460,369
1478280,359,460,368
1478281,358,459,368
1478282,359,459,368
1478283,356,457,368
1478284,359,457,367
1478285,359,459,369
1478286,359,460,370
1478287,360,458,371
1478288,360,459,372
1478289,361,460,371
1478290,359,461,372
1478291,361,460,371
1478292,362,458,372
1478293,360,462,370
1478294,359,462,370
1478295,360,461,370
1478296,360,460,370
1478297,360,460,369
1478298,359,460,369
1478299,358,460,369
1478300,358,456,368
1478301,359,458,368
1478302,359,459,368
1478303,359,458,367
1478304,359,460,367
1478305,360,458,368
1478306,359,458,370
1478307,360,461,370
1478308,360,459,371
1478309,360,460,371
1478310,361,459,371
1478311,362,462,371
1478312,363,460,372
1478313,361,462,370
1478314,361,462,372
1478315,360,458,371
1478316,360,462,370
1478317,359,460,369
1478318,361,462,368
1478319,359,462,369
1478320,360,459,369
1478321,359,456,368
1478322,360,458,368
1478323,358,459,369
1478324,359,459,369
1478325,360,458,370
1478326,360,458,369
1478327,360,460,371
1478328,361,461,372
1478329,362,458,372
1478330,361,460,371
1478331,361,461,371
1478332,363,461,371
1478333,363,461,369
1478334,362,463,370
1478335,362,461,371
1478336,360,462,369
1478337,361,460,368
1478338,359,461,367
1478339,360,460,367
1478340,360,458,367
1478341,358,458,369
1478342,358,460,368
1478343,359,460,369
1478344,360,458,369
1478345,360,458,369
1478346,360,459,370
1478347,360,461,370
1478348,362,460,371
1478349,362,458,372
1478350,364,462,370
1478351,361,461,371
1478352,362,461,371
1478353,361,462,372
1478354,361,461,371
1478355,361,463,369
1478356,359,462,369
1478357,358,461,368
1478358,359,461,369
1478359,359,460,368
1478360,358,460,368
1478361,360,460,368
1478362,359,460,369
1478363,359,459,369
1478364,359,456,368
1478365,360,458,370
1478366,358,459,370
1478367,360,460,370
1478368,360,460,370
1478369,359,459,371
1478370,360,463,370
1478371,363,460,370
1478372,360,459,371
1478373,362,461,372
1478374,360,463,369
1478375,362,462,370
1478376,361,463,369
1478377,362,462,369
1478378,360,462,369
1478379,359,460,368
1478380,360,459,367
1478381,359,461,369
1478382,360,459,368
1478383,360,459,369
1478384,359,459,370
1478385,358,458,369
1478386,358,459,370
1478387,360,461,370
1478388,361,458,371
1478389,360,460,372
1478390,361,462,372
1478391,361,462,373
1478392,362,462,371
1478393,363,460,371
1478394,361,460,371
1478395,361,462,371
1478396,362,462,369
1478397,362,462,370
1478398,359,462,369
1478399,360,462,369
1478400,360,460,367
1478401,359,459,368
1478402,359,459,368
1478403,359,458,369
1478404,359,457,369
1478405,359,459,370
1478406,360,459,370
1478407,359,459,370
1478408,361,460,371
1478409,361,461,372
1478410,362,460,372
1478411,361,463,371
1478412,363,463,371
1478413,362,463,372
1478414,362,464,371
1478415,362,464,372
1478416,361,462,370
1478417,362,463,371
1478418,359,462,368
1478419,361,461,369
1478420,361,462,369
1478421,358,460,369
1478422,360,460,367
1478423,359,458,369
1478424,358,461,369
1478425,359,458,369
1478426,359,460,370
1478427,362,461,370
1478428,361,461,371
1478429,362,462,371
1478430,362,464,372
1478431,362,464,373
1478432,362,462,371
1478433,362,464,372
1478434,362,463,372
1478435,360,463,370
1478436,362,463,371
1478437,362,461,371
1478438,361,463,370
1478439,361,462,370
1478440,362,462,370
1478441,361,462,370
1478442,360,459,369
1478443,361,461,370
1478444,361,462,370
1478445,362,461,371
1478446,361,461,372
1478447,362,461,371
1478448,363,462,372
1478449,362,461,375
1478450,363,465,374
1478451,362,462,373
1478452,363,461,372
1478453,362,463,373
1478454,363,462,372
1478455,362,462,372
1478456,362,466,371
1478457,361,463,370
1478458,362,463,371
1478459,359,462,369
1478460,362,462,370
1478461,360,460,371
1478462,361,461,369
1478463,360,460,370
1478464,360,462,369
1478465,362,460,370
1478466,362,459,372
1478467,362,460,372
1478468,362,460,372
1478469,361,463,372
1478470,362,462,372
1478471,365,465,373
1478472,363,464,374
1478473,363,466,372
1478474,363,463,372
1478475,363,465,372
1478476,362,463,373
1478477,361,461,370
1478478,362,462,371
1478479,362,463,370
1478480,361,461,370
1478481,361,461,370
1478482,360,460,370
1478483,361,461,371
1478484,362,458,370
1478485,361,458,370
1478486,361,461,371
1478487,362,460,372
1478488,362,460,372
1478489,363,459,374
1478490,363,459,372
1478491,362,463,374
1478492,363,463,372
1478493,363,462,373
1478494,363,461,372
1478495,363,459,372
1478496,362,464,371
1478497,362,463,370
1478498,362,462,370
1478499,362,461,369
1478500,361,461,369
1478501,361,461,371
1478502,361,460,369
1478503,361,459,372
1478504,361,462,371
1478505,362,463,370
1478506,362,462,372
1478507,362,462,373
1478508,363,462,373
1478509,363,461,373
1478510,364,459,373
1478511,363,465,373
1478512,363,464,373
1478513,363,463,374
1478514,363,466,374
1478515,362,466,374
1478516,361,465,372
1478517,361,463,370
1478518,361,463,371
1478519,361,464,371
1478520,361,459,370
1478521,359,462,370
1478522,361,462,371
1478523,361,461,370
1478524,361,460,371
1478525,361,462,369
1478526,362,462,371
1478527,362,462,371
1478528,360,463,372
1478529,362,463,372
1478530,362,463,372
1478531,363,464,373
1478532,364,461,373
1478533,364,466,373
1478534,363,466,371
1478535,361,465,372
1478536,361,464,372
1478537,361,464,370
1478538,360,463,370
1478539,360,462,369
1478540,359,463,369
1478541,359,462,370
1478542,359,460,370
1478543,360,462,370
1478544,360,460,369
1478545,361,462,369
1478546,361,463,371
1478547,361,462,371
1478548,363,464,372
1478549,361,462,374
1478550,362,463,372
1478551,364,464,374
1478552,363,461,373
1478553,361,464,372
1478554,362,463,372
1478555,362,465,371
1478556,361,462,372
1478557,362,462,371
1478558,362,460,371
1478559,361,461,368
1478560,361,459,369
1478561,360,461,370
1478562,360,460,370
1478563,361,459,370
1478564,361,461,370
1478565,360,463,370
1478566,362,462,371
1478567,361,461,371
1478568,361,461,372
1478569,362,461,372
1478570,362,464,373
1478571,363,463,373
1478572,361,463,372
1478573,361,463,372
1478574,361,464,371
1478575,362,463,371
1478576,361,461,372
1478577,363,464,371
1478578,361,461,370
1478579,360,459,370
1478580,360,461,370
1478581,359,460,369
1478582,361,461,369
1478583,360,458,369
1478584,359,459,371
1478585,360,459,370
1478586,360,461,369
1478587,360,460,371
1478588,360,461,371
1478589,363,461,373
1478590,363,462,373
1478591,363,462,372
1478592,362,461,371
1478593,361,463,372
1478594,360,463,370
1478595,362,463,370
1478596,361,463,371
1478597,361,461,370
1478598,360,462,370
1478599,360,462,369
1478600,359,461,367
1478601,359,460,368
1478602,358,459,367
1478603,359,459,367
1478604,358,457,370
1478605,360,459,369
1478606,359,460,371
1478607,360,460,371
1478608,361,462,371
1478609,361,461,373
1478610,361,461,371
1478611,362,462,370
1478612,362,462,372
1478613,361,463,372
1478614,362,463,370
1478615,361,463,369
1478616,360,461,370
1478617,362,461,370
1478618,360,462,368
1478619,359,460,370
1478620,360,461,369
1478621,358,460,367
1478622,360,460,368
1478623,360,460,367
1478624,358,459,369
1478625,361,458,368
1478626,359,458,371
1478627,362,459,370
1478628,361,461,371
1478629,361,460,371
1478630,361,461,371
1478631,361,462,372
1478632,362,463,371
1478633,361,461,372
1478634,360,464,370
1478635,361,460,371
1478636,360,461,369
1478637,361,461,369
1478638,359,461,370
1478639,359,461,370
1478640,359,460,367
1478641,358,460,368
1478642,358,459,368
1478643,359,458,369
1478644,360,459,369
1478645,359,458,370
1478646,360,456,369
1478647,361,459,371
1478648,361,460,371
1478649,361,461,371
1478650,362,461,372
1478651,361,462,372
1478652,364,461,372
1478653,362,462,369
1478654,362,461,369
1478655,360,463,371
1478656,362,462,370
1478657,361,458,370
1478658,359,457,368
1478659,358,458,368
1478660,359,459,368
1478661,359,458,367
1478662,359,454,369
1478663,360,457,369
1478664,359,459,369
1478665,361,458,369
1478666,360,456,371
1478667,361,457,371
1478668,361,460,371
1478669,361,461,372
1478670,360,460,371
1478671,361,460,370
1478672,361,461,372
1478673,362,461,370
1478674,361,461,371
1478675,361,460,370
1478676,361,459,371
1478677,360,459,369
1478678,360,459,368
1478679,358,455,369
1478680,359,456,368
1478681,358,458,368
1478682,358,459,367
1478683,360,458,369
1478684,359,458,369
1478685,358,459,368
1478686,360,459,369
1478687,359,456,369
1478688,360,458,369
1478689,361,461,371
1478690,360,460,371
1478691,361,460,371
1478692,360,461,371
1478693,358,461,370
1478694,361,462,370
1478695,359,461,369
1478696,359,461,370
1478697,359,461,368
1478698,357,460,368
1478699,357,460,367
1478700,358,459,367
1478701,359,459,367
1478702,359,457,367
1478703,359,456,369
1478704,358,457,368
1478705,360,458,369
1478706,358,458,367
1478707,360,459,370
1478708,359,461,370
1478709,360,461,370
1478710,360,459,369
1478711,361,460,370
1478712,361,461,371
1478713,362,461,370
1478714,359,461,369
1478715,361,461,370
1478716,360,461,370
1478717,359,460,368
1478718,360,461,368
1478719,358,460,369
1478720,359,457,368
1478721,359,457,368
1478722,360,459,367
1478723,359,461,369
1478724,361,458,370
1478725,359,459,370
1478726,358,460,369
1478727,359,460,370
1478728,360,461,369
1478729,361,460,371
1478730,362,461,371
1478731,362,461,372
1478732,363,460,372
1478733,363,463,370
1478734,360,462,371
1478735,360,462,370
1478736,359,462,369
1478737,360,461,368
1478738,360,458,368
1478739,358,457,368
1478740,359,460,369
1478741,359,458,368
1478742,361,459,369
1478743,359,459,367
1478744,357,460,368
1478745,360,460,369
1478746,360,460,370
1478747,360,459,370
1478748,361,460,373
1478749,361,461,369
1478750,362,461,371
1478751,361,463,370
1478752,363,462,371
1478753,361,461,369
1478754,361,463,370
1478755,361,463,371
1478756,360,462,369
1478757,359,461,368
1478758,360,461,367
1478759,359,460,368
1478760,359,460,367
1478761,359,458,368
1478762,357,458,368
1478763,359,458,367
1478764,360,461,367
1478765,361,458,368
1478766,359,458,368
1478767,361,460,370
1478768,361,459,371
1478769,360,459,371
1478770,362,460,370
1478771,362,462,371
1478772,361,463,370
1478773,361,462,372
1478774,362,462,371
1478775,361,459,371
1478776,360,458,371
1478777,361,462,370
1478778,359,461,368
1478779,360,461,369
1478780,359,462,368
1478781,360,459,368
1478782,359,458,370
1478783,360,460,369
1478784,360,460,368
1478785,359,459,369
1478786,360,459,369
1478787,360,461,369
1478788,361,461,371
1478789,362,460,371
1478790,362,460,371
1478791,361,459,371
1478792,362,461,372
1478793,362,463,371
1478794,361,462,370
1478795,361,463,371
1478796,362,463,371
1478797,360,460,369
1478798,361,462,369
1478799,359,460,369
1478800,361,460,370
1478801,359,461,367
1478802,359,459,369
1478803,359,459,369
1478804,360,460,370
1478805,361,460,370
1478806,360,457,370
1478807,361,463,371
1478808,361,459,371
1478809,362,461,372
1478810,363,461,373
1478811,363,463,372
1478812,361,461,371
1478813,362,462,371
1478814,362,463,371
1478815,361,464,370
1478816,361,459,369
1478817,360,463,370
1478818,360,462,370
1478819,359,459,368
1478820,359,457,367
1478821,360,460,368
1478822,360,460,369
1478823,359,460,368
1478824,359,459,369
1478825,360,459,371
1478826,361,459,370
1478827,360,461,372
1478828,359,461,370
1478829,361,458,371
1478830,361,463,371
1478831,362,462,371
1478832,360,460,373
1478833,361,461,370
1478834,361,460,369
1478835,361,461,371
1478836,359,459,369
1478837,361,459,369
1478838,360,461,370
1478839,359,461,370
1478840,360,460,369
1478841,359,460,367
1478842,358,455,369
1478843,360,459,370
1478844,360,460,368
1478845,359,459,369
1478846,361,459,369
1478847,360,459,370
1478848,361,461,371
1478849,361,461,372
1478850,360,463,371
1478851,362,461,371
1478852,363,462,372
1478853,361,461,372
1478854,360,463,372
1478855,362,462,370
1478856,361,460,369
1478857,361,462,370
1478858,358,460,369
1478859,361,457,368
1478860,359,460,368
1478861,359,460,369
1478862,359,458,369
1478863,359,457,368
1478864,361,458,370
1478865,359,459,369
1478866,361,459,370
1478867,361,460,370
1478868,361,457,372
1478869,362,461,372
1478870,361,461,371
1478871,361,463,370
1478872,362,463,371
1478873,361,461,370
1478874,361,461,371
1478875,362,463,369
1478876,360,463,370
1478877,360,462,368
1478878,360,461,369
1478879,360,461,370
1478880,360,460,368
1478881,359,459,368
1478882,360,458,368
1478883,359,458,369
1478884,360,457,370
1478885,359,460,370
1478886,360,459,370
1478887,361,458,371
1478888,361,461,371
1478889,361,460,371
1478890,363,461,372
1478891,361,460,372
1478892,361,463,371
1478893,361,463,370
1478894,360,461,371
1478895,360,462,369
1478896,360,461,370
1478897,360,460,368
1478898,358,460,369
1478899,359,460,368
1478900,360,459,368
1478901,358,460,368
1478902,359,459,369
1478903,359,457,367
1478904,359,455,369
1478905,360,456,369
1478906,359,461,370
1478907,361,458,371
1478908,361,461,371
1478909,361,460,371
1478910,360,460,369
1478911,361,463,372
1478912,362,461,371
1478913,361,463,370
1478914,361,462,371
1478915,362,463,369
1478916,361,461,369
1478917,358,462,368
1478918,356,460,367
1478919,359,459,369
1478920,360,458,369
1478921,359,459,368
1478922,359,456,369
1478923,359,458,368
1478924,358,458,368
1478925,360,457,368
1478926,360,457,369
1478927,360,458,372
1478928,360,460,371
1478929,361,460,370
1478930,360,459,370
1478931,360,460,370
1478932,361,460,372
1478933,360,461,370
1478934,360,462,369
1478935,359,458,368
1478936,360,462,368
1478937,359,461,368
1478938,359,460,368
1478939,357,461,369
1478940,357,461,368
1478941,356,458,367
1478942,359,458,367
1478943,359,458,368
1478944,359,455,368
1478945,360,456,369
1478946,361,457,369
1478947,359,456,370
1478948,361,460,371
1478949,361,459,371
1478950,361,460,369
1478951,361,461,369
1478952,361,460,370
1478953,360,460,370
1478954,362,460,369
1478955,360,461,369
1478956,360,461,369
1478957,358,461,368
1478958,357,459,368
1478959,358,458,369
1478960,359,455,367
1478961,359,456,367
1478962,359,459,367
1478963,360,458,369
1478964,359,456,369
1478965,360,457,369
1478966,360,454,369
1478967,361,455,371
1478968,359,458,371
1478969,359,460,370
1478970,360,459,371
1478971,360,460,371
1478972,361,460,371
1478973,361,461,370
1478974,358,462,368
1478975,361,461,368
1478976,360,459,368
1478977,360,458,368
1478978,359,459,369
1478979,359,459,368
1478980,358,457,367
1478981,357,459,366
1478982,358,457,367
1478983,358,457,368
1478984,359,459,368
1478985,358,457,368
1478986,358,458,369
1478987,360,459,371
1478988,360,459,369
1478989,361,460,370
1478990,360,461,370
1478991,360,460,370
1478992,360,461,371
1478993,360,458,369
1478994,361,461,370
1478995,359,461,369
1478996,359,462,370
1478997,359,460,367
1478998,360,458,367
1478999,360,458,367
1479000,358,458,365
1479001,359,455,368
1479002,358,456,370
1479003,358,458,369
1479004,358,458,369
1479005,358,457,367
1479006,359,455,369
1479007,359,455,370
1479008,361,460,371
1479009,361,456,370
1479010,362,461,371
1479011,362,462,370
1479012,361,461,372
1479013,361,461,371
1479014,361,466,370
1479015,360,461,370
1479016,360,462,369
1479017,359,462,369
1479018,359,462,367
1479019,359,461,369
1479020,359,460,368
1479021,359,459,370
1479022,360,459,370
1479023,360,457,370
1479024,361,461,370
1479025,362,462,370
1479026,362,459,371
1479027,364,461,374
1479028,363,462,373
1479029,364,462,373
1479030,363,460,373
1479031,364,462,373
1479032,363,460,373
1479033,362,461,371
1479034,362,459,371
1479035,362,463,371
1742212720420,NEW REP,,
1479036,361,463,371
1479037,359,461,368
1479038,359,462,368
1479039,359,461,367
1479040,359,460,368
1479041,360,462,370
1479042,360,460,370
1479043,360,461,371
1479044,360,460,370
1479045,361,462,371
1479046,362,461,371
1479047,362,462,372
1479048,364,463,373
1479049,362,463,374
1479050,363,462,373
1479051,363,465,371
1479052,363,465,374
1479053,364,465,372
1479054,363,463,372
1479055,360,463,371
1479056,363,462,370
1479057,361,463,370
1479058,362,462,369
1479059,362,461,370
1479060,362,459,370
1479061,360,460,370
1479062,360,457,370
1479063,360,459,372
1479064,359,460,370
1479065,361,458,370
1479066,360,460,370
1479067,360,460,372
1479068,362,458,371
1479069,363,461,372
1479070,361,460,371
1479071,363,462,372
1479072,362,464,371
1479073,362,462,371
1479074,361,463,371
1479075,363,462,372
1479076,362,460,370
1479077,360,463,369
1479078,359,462,369
1479079,360,461,369
1479080,360,459,368
1479081,361,460,369
1479082,361,461,369
1479083,361,457,369
1479084,359,461,372
1479085,362,460,371
1479086,361,463,373
1479087,363,464,374
1479088,365,465,373
1479089,365,467,375
1479090,367,467,376
1479091,366,470,376
1479092,367,471,376
1479093,367,472,376
1479094,367,470,375
1479095,366,468,376
1479096,367,468,376
1479097,364,467,373
1479098,363,465,374
1479099,364,466,373
1479100,361,463,371
1479101,362,462,370
1479102,361,462,370
1479103,362,460,371
1479104,361,462,372
1479105,364,464,373
1479106,362,465,374
1479107,364,467,375
1479108,365,471,376
1479109,368,472,378
1479110,368,475,382
1479111,370,478,381
1479112,372,481,382
1479113,373,483,381
1479114,374,484,385
1479115,375,485,387
1479116,376,485,386
1479117,376,485,387
1479118,377,485,387
1479119,376,485,386
1479120,377,486,386
1479121,375,483,387
1479122,374,477,384
1479123,372,473,383
1479124,371,473,383
1479125,371,467,380
1479126,369,468,381
1479127,369,464,378
1479128,367,467,377
1479129,368,466,377
1479130,365,464,377
1479131,366,465,377
1479132,364,468,375
1479133,366,465,374
1479134,364,465,373
1479135,364,464,372
1479136,362,463,371
1479137,360,463,369
1479138,361,462,370
1479139,360,462,369
1479140,360,461,367
1479141,360,459,367
1479142,359,460,367
1479143,360,459,368
1479144,360,459,369
1479145,360,457,370
1479146,360,459,370
1479147,362,461,371
1479148,360,461,371
1479149,360,461,371
1479150,360,464,373
1479151,360,461,372
1479152,361,462,371
1479153,362,461,370
1479154,360,461,370
1479155,360,461,368
1479156,361,460,369
1479157,360,459,368
1479158,359,460,367
1479159,358,459,368
1479160,358,457,366
1479161,358,460,367
1479162,357,457,367
1479163,356,458,367
1479164,359,459,369
1479165,360,457,369
1479166,359,459,368
1479167,361,457,371
1479168,361,457,370
1479169,362,462,372
1479170,364,460,372
1479171,363,462,372
1479172,364,466,373
1479173,366,467,373
1479174,364,469,374
1479175,363,468,374
1479176,362,468,373
1479177,364,465,373
1479178,364,465,372
1479179,363,463,373
1479180,361,464,373
1479181,363,463,371
1479182,362,463,372
1479183,364,464,372
1479184,364,459,373
1479185,364,464,374
1479186,363,463,374
1479187,363,463,372
1479188,364,465,374
1479189,365,465,374
1479190,364,465,374
1479191,365,467,374
1479192,365,468,375
1479193,365,470,375
1479194,364,469,375
1479195,366,471,376
1479196,366,472,377
1479197,366,472,376
1479198,366,476,377
1479199,369,476,380
1479200,368,476,379
1479201,371,475,380
1479202,370,478,381
1479203,373,474,383
1479204,371,475,382
1479205,372,476,382
1479206,373,470,383
1479207,369,470,380
1479208,370,467,380
1479209,367,467,378
1479210,367,464,377
1479211,365,462,375
1479212,364,464,374
1479213,363,460,372
1479214,360,459,371
1479215,359,458,369
1479216,359,458,369
1479217,358,458,368
1479218,357,454,366
1479219,357,454,364
1479220,357,455,363
1479221,357,452,366
1479222,357,453,365
1479223,357,456,366
1479224,358,456,367
1479225,357,455,367
1479226,359,457,368
1479227,357,456,367
1479228,357,456,368
1479229,359,458,368
1479230,360,457,370
1479231,359,455,368
1479232,358,459,368
1479233,359,456,368
1479234,358,458,368
1479235,357,458,367
1479236,357,458,366
1479237,357,455,365
1479238,356,456,366
1479239,355,451,364
1479240,356,451,363
1479241,355,454,363
1479242,354,452,363
1479243,356,454,363
1479244,354,453,365
1479245,356,454,364
1479246,355,455,365
1479247,356,456,367
1479248,358,455,366
1479249,359,458,367
1479250,359,455,368
1479251,358,456,366
1479252,358,459,367
1479253,358,455,367
1479254,359,459,369
1479255,358,460,367
1479256,359,460,367
1479257,359,462,367
1479258,359,461,368
1479259,359,462,369
1479260,360,463,370
1479261,360,466,370
1479262,361,465,371
1479263,363,464,372
1479264,362,464,372
1479265,364,462,373
1479266,363,464,372
1479267,364,464,373
1479268,364,465,374
1479269,364,466,375
1479270,366,467,377
1479271,367,465,376
1479272,366,468,377
1479273,365,468,376
1479274,364,467,373
1479275,363,466,374
1479276,364,467,374
1479277,364,468,374
1479278,364,467,372
1479279,364,467,373
1479280,363,468,373
1479281,365,468,375
1479282,366,469,374
1479283,364,468,375
1479284,365,467,376
1479285,365,466,375
1479286,366,465,376
1479287,365,464,375
1479288,365,465,374
1479289,363,464,374
1479290,363,461,372
1479291,363,463,371
1479292,362,460,372
1479293,359,457,369
1479294,361,458,370
1479295,358,454,369
1479296,357,455,366
1479297,355,453,364
1479298,357,453,364
1479299,356,454,364
1479300,356,452,365
1479301,356,454,364
1479302,356,453,365
1479303,356,453,365
1479304,357,454,366
1479305,357,452,367
1479306,357,453,367
1479307,357,451,367
1479308,357,451,366
1479309,356,453,363
1479310,354,452,364
1479311,355,450,364
1479312,354,451,363
1479313,354,446,362
1479314,351,449,361
1479315,351,447,360
1479316,352,449,361
1479317,352,451,360
1479318,351,451,361
1479319,353,452,361
1479320,353,452,363
1479321,353,453,363
1479322,354,455,364
1479323,355,456,366
1479324,357,456,366
1479325,357,455,368
1479326,356,457,367
1479327,359,459,368
1479328,359,459,370
1479329,360,455,370
1479330,359,458,369
1479331,359,457,368
1479332,358,452,368
1479333,359,453,367
1479334,358,455,366
1479335,357,454,365
1479336,357,454,367
1479337,357,456,365
1479338,358,457,365
1479339,357,457,365
1479340,357,458,366
1479341,358,457,367
1479342,357,452,366
1479343,356,450,365
1479344,356,452,365
1479345,357,452,364
1479346,356,452,365
1479347,357,451,366
1479348,357,455,367
1479349,358,453,368
1479350,358,455,369
1479351,358,454,367
1479352,356,455,366
1479353,356,453,366
1479354,356,455,364
1479355,357,455,365
1479356,353,456,364
1479357,356,452,364
1479358,356,455,365
1479359,356,455,364
1479360,356,455,364
1479361,356,456,366
1479362,356,455,366
1479363,356,453,366
1479364,356,453,366
1479365,357,450,366
1479366,357,453,366
1479367,357,452,366
1479368,355,450,366
1479369,355,450,366
1479370,356,452,366
1479371,355,454,366
1479372,356,455,365
1479373,358,455,367
1479374,356,460,366
1479375,356,460,367
1479376,358,461,368
1479377,359,462,367
1479378,360,464,369
1479379,361,465,371
1479380,362,465,370
1479381,362,463,372
1479382,363,464,373
1479383,364,465,373
1479384,365,465,374
1479385,363,463,374
1479386,364,462,373
1479387,366,464,373
1479388,364,465,374
1479389,364,467,374
1479390,365,467,375
1479391,366,470,376
1479392,366,471,375
1479393,366,469,376
1479394,365,466,374
1479395,364,465,374
1479396,363,464,372
1479397,362,464,372
1479398,362,463,370
1479399,360,464,371
1479400,360,461,370
1479401,360,463,371
1479402,363,464,372
1479403,363,462,372
1479404,364,465,373
1479405,364,466,375
1479406,366,467,374
1479407,365,467,376
1479408,364,468,376
1479409,366,468,376
1479410,367,468,376
1479411,366,465,377
1479412,368,468,376
1479413,367,470,377
1479414,368,471,377
1479415,367,475,378
1479416,369,477,380
1479417,370,478,378
1479418,371,478,381
1479419,370,474,380
1479420,371,476,381
1479421,370,474,380
1479422,370,473,379
1479423,369,467,379
1479424,369,468,377
1479425,368,465,378
1479426,367,465,377
1479427,365,462,374
1479428,364,462,375
1479429,363,462,373
1479430,362,462,373
1479431,363,462,372
1479432,361,462,371
1479433,362,459,371
1479434,361,462,370
1479435,361,464,371
1479436,362,468,371
1479437,362,469,373
1479438,365,471,374
1479439,366,472,375
1479440,365,472,376
1479441,367,466,376
1479442,367,465,375
1479443,365,464,375
1479444,363,464,375
1479445,364,465,373
1479446,365,467,376
1479447,367,469,377
1479448,367,471,377
1479449,368,472,377
1479450,367,471,378
1479451,367,470,379
1479452,367,469,376
1479453,366,467,376
1479454,366,468,375
1479455,366,468,375
1479456,364,468,376
1479457,364,468,372
1479458,366,466,373
1479459,364,466,373
1479460,363,464,373
1479461,364,465,373
1479462,364,469,373
1479463,364,466,374
1479464,365,461,373
1479465,363,461,373
1479466,364,461,372
1479467,363,462,373
1479468,363,457,374
1479469,361,461,372
1479470,363,462,373
1479471,363,465,374
1479472,364,469,375
1479473,364,471,375
1479474,366,472,376
1479475,368,474,376
1479476,368,472,377
1479477,366,472,375
1479478,366,468,377
1479479,367,470,375
1479480,364,466,374
1479481,365,464,373
1479482,363,464,372
1479483,364,464,371
1479484,365,461,373
1479485,364,465,375
1479486,363,466,376
1479487,365,462,375
1479488,365,465,375
1479489,365,465,376
1479490,365,465,374
1479491,365,461,374
1479492,365,467,375
1479493,365,469,375
1479494,367,472,375
1479495,368,472,375
1479496,368,476,378
1479497,370,473,378
1479498,367,470,376
1479499,365,465,376
1479500,366,466,374
1479501,363,463,372
1479502,361,462,370
1479503,362,462,373
1479504,362,463,371
1479505,363,464,374
1479506,365,466,375
1479507,365,467,376
1479508,365,467,376
1479509,364,467,375
1479510,364,466,375
1479511,365,462,375
1479512,363,465,373
1479513,363,465,373
1479514,364,465,373
1479515,363,467,372
1479516,364,467,372
1479517,364,468,373
1479518,364,464,372
1479519,364,463,373
1479520,363,460,371
1479521,361,459,370
1479522,360,453,367
1479523,359,450,367
1479524,356,451,366
1479525,356,451,365
1479526,357,455,367
1479527,359,459,368
1479528,359,461,371
1479529,359,463,370
1479530,361,465,370
1479531,362,466,373
1479532,361,462,371
1479533,363,463,373
1479534,362,464,372
1479535,363,462,371
1479536,364,464,371
1479537,362,467,373
1479538,364,468,371
1479539,364,468,371
1479540,364,468,374
1479541,364,465,372
1479542,365,461,372
1479543,363,463,372
1479544,363,465,372
1479545,366,464,375
1479546,367,468,377
1479547,367,471,379
1479548,368,472,378
1479549,370,469,378
1479550,371,471,380
1479551,367,470,379
1479552,367,466,377
1479553,364,463,373
1479554,364,457,372
1479555,361,460,369
1479556,360,458,367
1479557,359,460,367
1479558,360,462,368
1479559,360,462,369
1479560,361,463,369
1479561,361,460,371
1479562,362,462,371
1479563,363,461,372
1479564,362,461,372
1479565,362,461,371
1479566,361,461,372
1479567,363,464,372
1479568,364,464,373
1479569,366,470,376
1479570,366,471,377
1479571,366,471,376
1479572,367,472,379
1479573,367,468,376
1479574,366,468,376
1479575,365,466,373
1479576,364,467,374
1479577,363,469,373
1479578,364,466,373
1479579,366,470,375
1479580,367,471,376
1479581,365,471,376
1479582,368,471,378
1479583,366,470,377
1479584,367,468,377
1479585,367,466,377
1479586,366,463,375
1479587,366,461,376
1479588,364,460,375
1479589,364,459,374
1479590,363,459,372
1479591,361,458,371
1479592,360,455,369
1479593,359,456,367
1479594,357,456,367
1479595,358,454,367
1479596,358,458,365
1479597,355,457,365
1479598,356,462,367
1479599,359,461,369
1479600,362,465,371
1479601,362,467,372
1479602,364,469,374
1479603,365,471,375
1479604,367,472,376
1479605,368,468,378
1479606,368,469,378
1479607,367,468,378
1479608,367,469,378
1479609,366,467,377
1479610,367,467,376
1479611,367,468,375
1479612,367,468,375
1479613,366,468,376
1479614,366,469,376
1479615,366,468,375
1479616,366,469,375
1479617,363,466,373
1479618,364,465,372
1479619,364,462,372
1479620,362,459,371
1479621,361,457,369
1479622,359,457,369
1479623,360,458,368
1479624,360,459,370
1479625,360,459,370
1479626,361,458,370
1479627,360,458,370
1479628,359,462,369
1479629,359,463,372
1479630,362,461,372
1479631,364,467,374
1479632,364,470,374
1479633,366,473,376
1479634,366,476,376
1479635,368,476,378
1479636,370,474,378
1479637,369,473,377
1479638,367,472,377
1479639,367,468,377
1479640,366,466,377
1479641,367,464,375
1479642,366,464,375
1479643,363,461,374
1479644,362,459,371
1479645,362,461,371
1479646,362,461,371
1479647,361,462,372
1479648,362,461,372
1479649,362,460,372
1479650,361,459,371
1479651,361,458,370
1479652,360,459,370
1479653,359,458,368
1479654,358,460,368
1479655,359,460,369
1479656,359,459,367
1479657,359,457,367
1479658,359,458,368
1479659,360,460,368
1479660,358,459,368
1479661,360,460,368
1479662,360,459,370
1479663,358,457,368
1479664,359,458,368
1479665,359,455,370
1479666,358,456,368
1479667,359,455,369
1479668,360,457,369
1479669,359,459,368
1479670,361,462,371
1479671,362,460,371
1479672,362,461,371
1479673,362,463,371
1479674,361,462,371
1479675,359,460,369
1479676,359,459,369
1479677,357,457,367
1479678,355,457,366
1479679,356,456,366
1479680,357,455,364
1479681,356,456,365
1479682,356,456,366
1479683,357,456,367
1479684,357,457,366
1479685,360,459,369
1479686,359,461,369
1479687,361,464,372
1479688,365,465,374
1479689,366,468,376
1479690,367,472,377
1479691,368,472,376
1479692,368,469,376
1479693,366,465,375
1479694,364,463,373
1479695,362,458,370
1479696,361,457,368
1479697,357,454,367
1479698,358,456,366
1479699,355,457,365
1479700,356,456,365
1479701,357,460,366
1479702,359,458,367
1479703,361,459,368
1479704,360,462,370
1479705,363,463,371
1479706,363,466,371
1479707,365,467,376
1479708,364,466,377
1479709,366,465,376
1479710,366,465,376
1479711,363,462,374
1479712,362,463,371
1479713,362,464,372
1479714,362,464,372
1479715,363,460,372
1479716,363,463,372
1479717,360,463,369
1479718,360,461,369
1479719,360,462,370
1479720,358,459,368
1479721,360,458,368
1479722,360,454,368
1479723,357,455,367
1479724,360,460,368
1479725,360,462,370
1479726,361,466,372
1479727,363,467,373
1479728,365,469,375
1479729,365,470,375
1479730,367,464,373
1479731,364,464,373
1479732,363,461,371
1479733,362,459,370
1479734,361,459,369
1479735,358,460,369
1479736,360,460,368
1479737,360,465,370
1479738,362,465,371
1479739,362,465,372
1479740,363,465,371
1479741,363,466,373
1479742,361,463,372
1479743,362,461,371
1479744,361,461,371
1479745,361,460,371
1479746,361,460,370
1479747,363,463,371
1479748,363,463,373
1479749,363,461,373
1479750,366,466,374
1479751,365,468,374
1479752,365,469,375
1479753,364,469,375
1479754,365,470,374
1479755,363,467,374
1479756,365,467,371
1479757,363,466,372
1479758,363,467,372
1479759,364,465,371
1479760,363,468,372
1479761,365,468,373
1479762,366,470,375
1479763,365,469,376
1479764,365,469,375
1479765,366,468,376
1479766,365,466,376
1479767,366,465,376
1479768,364,462,374
1479769,363,461,373
1479770,362,461,372
1479771,363,461,372
1479772,363,463,372
1479773,362,465,371
1479774,363,467,373
1479775,362,466,372
1479776,364,469,374
1479777,365,469,372
1479778,365,472,375
1479779,366,473,375
1479780,367,470,376
1479781,366,470,376
1479782,366,468,376
1479783,367,468,376
1479784,365,466,375
1479785,365,463,375
1479786,365,461,374
1479787,363,461,374
1479788,363,460,374
1479789,362,461,374
1479790,364,465,372
1479791,363,464,374
1479792,363,465,373
1479793,363,462,372
1479794,360,462,369
1479795,361,462,368
1479796,359,459,369
1479797,359,461,368
1479798,359,458,367
1479799,359,462,368
1479800,361,463,370
1479801,360,467,372
1479802,363,469,374
1479803,364,471,374
1479804,367,468,377
1479805,366,470,378
1479806,368,475,379
1479807,369,470,378
1479808,367,469,378
1479809,370,471,380
1479810,370,476,380
1479811,370,476,380
1479812,371,477,380
1479813,371,477,381
1479814,372,478,380
1479815,372,477,381
1479816,372,478,382
1479817,371,476,381
1479818,371,474,381
1479819,370,475,380
1479820,372,474,382
1479821,370,472,379
1479822,369,468,378
1479823,368,466,376
1479824,365,464,375
1479825,366,462,375
1479826,364,460,372
1479827,364,459,373
1479828,363,463,373
1479829,364,463,374
1479830,367,468,375
1479831,368,473,377
1479832,369,475,377
1479833,371,480,381
1479834,373,483,384
1479835,373,481,383
1479836,372,480,383
1479837,372,477,381
1479838,372,473,380
1479839,369,466,377
1479840,365,463,375
1479841,363,455,371
1479842,361,454,370
1479843,361,453,371
1479844,360,454,368
1479845,358,454,369
1479846,356,453,368
1479847,356,455,364
1479848,357,455,367
1479849,357,456,367
1479850,359,454,368
1479851,359,456,367
1479852,359,458,368
1479853,357,460,368
1479854,358,458,368
1479855,358,460,369
1479856,358,459,368
1479857,358,456,366
1479858,358,456,366
1479859,356,453,365
1479860,355,452,365
1479861,355,452,364
1479862,355,455,362
1479863,355,452,365
1479864,355,453,365
1479865,355,451,366
1479866,355,449,365
1479867,356,451,365
1479868,356,452,364
1479869,355,448,365
1479870,357,450,365
1479871,355,450,365
1479872,354,454,364
1479873,354,453,364
1479874,356,456,365
1479875,357,460,366
1479876,357,462,368
1479877,359,461,368
1479878,359,465,368
1479879,362,468,370
1479880,363,466,371
1479881,363,465,372
1479882,363,462,373
1479883,363,462,372
1479884,363,460,372
1479885,363,461,372
1479886,365,461,373
1479887,363,461,373
1479888,362,462,374
1479889,362,460,372
1479890,360,462,371
1479891,361,460,371
1479892,360,459,369
1479893,359,457,369
1479894,359,456,368
1479895,359,458,367
1479896,359,460,367
1479897,358,457,367
1479898,359,462,368
1479899,357,461,368
1479900,360,465,368
1479901,359,460,367
1479902,361,460,370
1479903,361,460,369
1479904,361,461,372
1479905,362,460,371
1479906,360,460,369
1479907,362,462,371
1479908,363,464,374
1479909,363,465,375
1479910,366,467,376
1479911,368,470,376
1479912,367,474,377
1479913,368,474,378
1479914,367,473,379
1479915,366,468,375
1479916,364,463,373
1479917,362,462,371
1479918,360,461,371
1479919,361,457,370
1479920,359,459,369
1479921,362,460,369
1479922,360,460,370
1479923,359,458,370
1479924,361,458,369
1479925,358,455,369
1479926,357,454,368
1479927,358,455,368
1479928,358,456,369
1479929,359,458,367
1479930,359,458,368
1479931,360,459,368
1479932,360,461,369
1479933,360,462,370
1479934,362,468,372
1479935,363,469,372
1479936,362,468,374
1479937,361,467,374
1479938,364,470,374
1479939,364,474,375
1479940,367,470,376
1479941,368,472,377
1479942,368,472,378
1479943,370,472,379
1479944,372,475,381
1479945,371,471,379
1479946,371,473,381
1479947,371,471,378
1479948,369,470,381
1479949,368,464,378
1479950,366,462,375
1479951,364,460,373
1479952,362,458,369
1479953,360,457,369
1479954,360,459,368
1479955,357,457,368
1479956,357,456,365
1479957,357,453,366
1479958,356,453,365
1479959,354,454,364
1479960,355,457,364
1479961,358,460,367
1479962,361,465,370
1479963,363,470,374
1479964,365,472,376
1479965,368,473,379
1479966,368,472,379
1479967,369,472,380
1479968,368,469,379
1479969,368,468,377
1479970,366,464,376
1479971,363,461,374
1479972,361,454,371
1479973,359,455,368
1479974,358,454,366
1479975,358,454,366
1479976,356,453,365
1479977,354,452,363
1479978,356,453,363
1479979,355,455,364
1479980,355,456,364
1479981,355,456,367
1479982,354,455,364
1479983,354,452,363
1479984,355,449,364
1479985,355,450,363
1479986,354,449,364
1479987,354,448,364
1479988,353,452,365
1479989,355,455,367
1479990,358,458,368
1479991,361,470,372
1479992,365,479,376
1479993,369,486,381
1479994,374,492,384
1479995,376,492,387
1479996,378,492,388
1479997,378,487,387
1479998,375,479,387
1479999,372,469,381
1480000,368,465,376
1480001,364,460,375
1480002,363,456,372
1480003,361,454,369
1480004,358,449,368
1480005,358,448,365
1480006,358,449,365
1480007,356,445,364
1480008,354,446,363
1480009,355,450,364
1480010,355,450,364
1480011,354,457,365
1480012,356,458,366
1480013,357,460,368
1480014,358,458,366
1480015,358,457,365
1480016,356,456,365
1480017,354,451,362
1480018,355,452,363
1480019,354,449,363
1480020,354,451,363
1480021,355,451,364
1480022,355,451,365
1480023,356,456,368
1480024,357,459,367
1480025,358,463,371
1480026,363,463,372
1480027,361,465,373
1480028,362,465,371
1480029,363,463,373
1480030,363,458,373
1480031,360,457,371
1480032,360,456,370
1480033,360,459,369
1480034,360,459,368
1480035,358,460,369
1480036,358,461,368
1480037,358,461,368
1480038,358,459,367
1480039,356,457,368
1480040,356,455,366
1480041,358,453,367
1480042,357,454,365
1480043,356,453,366
1480044,357,453,365
1480045,357,455,367
1480046,358,457,368
1480047,359,455,368
1480048,359,458,368
1480049,359,459,368
1480050,360,455,368
1480051,358,454,367
1480052,358,455,367
1480053,356,450,364
1480054,356,451,364
1480055,355,452,363
1480056,353,450,361
1480057,352,447,360
1480058,351,449,360
1480059,349,449,359
1480060,352,447,359
1480061,351,447,359
1480062,352,446,360
1480063,352,450,361
1480064,353,450,363
1480065,353,449,365
1480066,357,449,364
1480067,357,453,366
1480068,356,455,367
1480069,357,458,367
1480070,359,461,369
1480071,361,462,371
1480072,364,469,373
1480073,365,471,375
1480074,367,475,376
1480075,369,475,376
1480076,368,474,377
1480077,367,472,376
1480078,366,469,376
1480079,364,465,373
1480080,364,465,374
1480081,365,464,372
1480082,363,461,372
1480083,362,462,372
1480084,361,460,371
1480085,362,461,371
1480086,362,460,372
1480087,361,462,373
1480088,361,462,372
1480089,360,462,372
1480090,363,463,372
1480091,363,464,373
1480092,364,465,372
1480093,365,466,374
1480094,362,466,372
1480095,363,465,373
1480096,364,465,372
1480097,363,463,372
1480098,361,462,372
1480099,361,462,371
1480100,363,463,371
1480101,362,464,372
1480102,363,461,372
1480103,363,462,373
1480104,364,464,374
1480105,364,467,376
1480106,366,469,377
1480107,367,470,377
1480108,367,469,379
1480109,366,470,377
1480110,365,469,375
1480111,366,466,376
1480112,365,466,374
1480113,364,467,373
1480114,365,467,374
1480115,364,470,374
1480116,365,470,376
1480117,365,472,377
1480118,369,472,378
1480119,371,478,379
1480120,372,482,384
1480121,374,481,383
1480122,374,483,384
1480123,376,483,386
1480124,376,483,387
1480125,377,479,388
1480126,378,482,388
1480127,377,483,387
1480128,375,481,389
1480129,375,477,386
1480130,374,477,385
1480131,374,472,383
1480132,371,473,381
1480133,370,471,379
1480134,367,468,377
1480135,364,469,376
1480136,366,468,373
1480137,366,468,374
1480138,363,467,373
1480139,362,465,373
1480140,363,462,374
1480141,364,463,374
1480142,364,462,372
1480143,363,464,374
1480144,365,464,376
1480145,365,465,376
1480146,365,466,376
1480147,366,468,375
1480148,367,468,375
1480149,367,468,377
1480150,366,469,376
1480151,366,468,377
1480152,365,466,375
1480153,364,467,374
1480154,365,462,374
1480155,363,464,373
1480156,361,465,373
1480157,363,466,371
1480158,362,466,372
1480159,363,466,373
1480160,364,468,373
1480161,364,468,374
1480162,364,467,373
1480163,364,465,373
1480164,364,465,375
1480165,365,467,376
1480166,365,471,378
1480167,367,473,379
1480168,368,475,380
1480169,371,474,382
1480170,371,478,382
1480171,372,481,382
1480172,372,482,383
1480173,373,481,383
1480174,372,480,382
1480175,372,480,382
1480176,371,477,383
1480177,369,476,381
1480178,369,474,379
1480179,369,472,378
1480180,368,470,377
1480181,369,470,378
1480182,368,467,377
1480183,368,468,377
1480184,367,468,378
1480185,367,470,379
1480186,369,474,379
1480187,370,475,381
1480188,371,473,381
1480189,372,472,381
1480190,372,475,382
1480191,371,472,381
1480192,372,475,382
1480193,371,474,380
1480194,371,471,379
1480195,370,471,379
1480196,370,473,380
1480197,371,475,380
1480198,371,477,381
1480199,371,476,381
1480200,371,473,381
1480201,372,475,381
1480202,371,472,382
1480203,370,471,382
1480204,368,467,379
1480205,367,467,378
1480206,368,467,380
1480207,368,468,379
1480208,369,470,378
1480209,368,473,380
1480210,369,475,381
1480211,369,476,380
1480212,370,478,381
1480213,368,475,379
1480214,368,475,379
1480215,367,473,377
1480216,367,470,377
1480217,367,469,376
1480218,367,469,375
1480219,367,469,376
1480220,369,473,378
1480221,369,474,378
1480222,371,474,379
1480223,369,472,379
1480224,370,469,380
1480225,368,469,379
1480226,368,467,378
1480227,366,466,378
1480228,366,465,375
1480229,365,464,378
1480230,365,466,376
1480231,363,465,372
1480232,363,465,374
1480233,362,463,372
1480234,363,463,371
1480235,363,463,371
1480236,361,461,371
1480237,361,463,372
1480238,361,466,371
1480239,362,461,371
1480240,362,462,371
1480241,363,462,372
1480242,362,461,372
1480243,363,461,372
1480244,364,461,372
1480245,362,459,372
1480246,363,461,373
1480247,362,464,373
1480248,363,463,374
1480249,364,462,374
1480250,365,468,375
1480251,365,465,375
1480252,366,468,376
1480253,364,467,375
1480254,364,466,374
1480255,363,464,372
1480256,364,461,372
1480257,362,462,370
1480258,362,463,370
1480259,362,460,370
1480260,364,464,372
1480261,364,468,373
1480262,363,471,375
1480263,368,473,378
1480264,369,475,378
1480265,370,476,381
1480266,371,477,380
1480267,370,476,382
1480268,371,472,381
1480269,370,472,380
1480270,369,468,380
1480271,370,473,380
1480272,370,471,379
1480273,368,471,378
1480274,370,469,377
1480275,365,467,377
1480276,365,464,373
1480277,364,464,372
1480278,361,462,370
1480279,362,462,370
1480280,361,462,369
1480281,362,463,371
1480282,361,459,371
1480283,363,462,371
1480284,364,463,372
1480285,363,458,372
1480286,363,456,372
1480287,363,460,372
1480288,361,458,370
1480289,360,459,369
1480290,360,460,370
1480291,361,461,370
1480292,361,460,370
1480293,360,461,370
1480294,362,462,369
1480295,358,459,368
1480296,356,457,366
1480297,355,456,365
1480298,357,447,364
1480299,357,453,366
1480300,356,453,364
1480301,357,456,365
1480302,357,456,366
1480303,358,458,367
1480304,359,460,368
1480305,361,460,370
1480306,360,461,371
1480307,361,460,371
1480308,362,463,372
1480309,362,462,373
1480310,360,460,370
1480311,360,459,369
1480312,359,458,369
1480313,358,458,367
1480314,358,456,366
1480315,357,457,365
1480316,356,458,367
1480317,356,454,367
1480318,357,459,366
1480319,359,460,369
1480320,359,461,370
1480321,359,465,370
1480322,362,465,371
1480323,363,467,374
1480324,366,464,375
1480325,365,467,375
1480326,365,464,376
1480327,365,465,376
1480328,364,465,376
1480329,366,466,376
1480330,364,465,375
1480331,363,464,374
1480332,362,461,373
1480333,360,462,371
1480334,360,460,370
1480335,359,458,368
1480336,357,456,366
1480337,355,453,365
1480338,355,455,363
1480339,356,452,364
1480340,355,449,365
1480341,356,451,363
1480342,356,450,364
1480343,355,449,364
1480344,354,449,364
1480345,356,449,364
1480346,355,451,364
1480347,355,451,365
1480348,353,453,365
1480349,356,456,365
1480350,358,457,367
1480351,358,457,367
1480352,358,459,368
1480353,358,459,367
1480354,357,456,367
1480355,356,454,364
1480356,355,451,364
1480357,352,448,361
1480358,353,448,362
1480359,352,446,360
1480360,351,444,359
1480361,350,446,359
1480362,352,447,359
1480363,352,450,360
1480364,352,449,363
1480365,352,452,363
1480366,355,453,365
1480367,356,454,366
1480368,355,452,366
1480369,355,447,365
1480370,354,449,364
1480371,356,449,364
1480372,353,451,364
1480373,354,452,362
1480374,355,453,362
1480375,354,451,364
1480376,355,455,364
1480377,354,453,363
1480378,353,455,364
1480379,356,453,363
1480380,355,454,365
1480381,356,457,366
1480382,356,456,366
1480383,358,455,367
1480384,359,454,366
1480385,357,450,366
1480386,356,448,366
1480387,352,447,362
1480388,351,445,361
1480389,352,444,360
1480390,350,448,359
1480391,352,448,360
1480392,352,448,361
1480393,352,449,362
1480394,352,447,360
1480395,349,448,359
1480396,350,445,357
1480397,348,443,356
1480398,347,442,355
1480399,347,444,357
1480400,348,442,355
1480401,349,440,357
1480402,347,442,357
1480403,347,442,356
1480404,349,443,357
1480405,350,450,359
1480406,351,445,360
1480407,351,446,362
1480408,352,447,360
1480409,353,450,361
1480410,351,448,361
1480411,352,447,361
1480412,351,445,361
1480413,351,444,358
1480414,350,441,358
1480415,349,444,357
1480416,348,444,355
1480417,347,443,356
1480418,346,444,356
1480419,349,440,356
1480420,350,445,357
1480421,351,448,360
1480422,350,451,360
1480423,352,451,362
1480424,354,452,363
1480425,355,452,364
1480426,356,453,366
1480427,356,453,366
1480428,354,451,364
1480429,354,449,364
1480430,354,446,364
1480431,352,447,362
1480432,349,445,361
1480433,349,443,356
1480434,348,444,357
1480435,347,443,356
1480436,346,441,355
1480437,345,440,354
1480438,346,440,354
1480439,345,439,353
1480440,345,442,353
1480441,346,442,354
1480442,347,443,354
1480443,348,444,358
1480444,350,445,359
1480445,349,442,360
1480446,349,440,360
1480447,350,440,358
1480448,349,441,357
1480449,348,439,357
1480450,346,440,357
1480451,348,441,355
1480452,349,445,356
1480453,350,446,358
1480454,348,447,356
1480455,348,447,356
1480456,348,448,358
1480457,349,446,356
1480458,347,446,358
1480459,348,445,357
1480460,349,444,357
1480461,348,444,358
1480462,348,439,358
1480463,348,441,356
1480464,346,438,355
1480465,347,438,355
1480466,347,439,357
1480467,346,441,355
1480468,347,442,356
1480469,348,442,358
1480470,350,444,358
1480471,350,446,357
1480472,350,447,359
1480473,350,445,357
1480474,348,440,358
1480475,347,441,355
1480476,345,440,354
1480477,345,434,353
1480478,345,435,353
1480479,345,435,353
1480480,344,437,354
1480481,345,442,354
1480482,347,442,356
1480483,348,442,355
1480484,348,443,357
1480485,349,445,359
1480486,350,445,360
1480487,352,447,359
1480488,351,448,361
1480489,350,448,360
1480490,351,443,360
1480491,351,444,359
1480492,351,441,358
1480493,350,443,358
1480494,348,443,356
1480495,347,444,357
1480496,348,445,356
1480497,349,448,356
1480498,349,449,358
1480499,350,449,358
1480500,351,445,358
1480501,347,442,357
1480502,348,440,355
1480503,348,440,357
1480504,348,437,357
1480505,347,439,356
1480506,349,439,356
1480507,348,441,358
1480508,348,442,357
1480509,349,442,358
1480510,348,440,358
1480511,348,440,357
1480512,346,444,357
1480513,348,446,356
1480514,349,446,357
1480515,350,450,358
1480516,351,449,358
1480517,349,450,358
1480518,350,451,357
1480519,351,450,358
1480520,350,448,358
1480521,350,443,360
1480522,351,442,359
1480523,351,442,359
1480524,350,444,359
1480525,351,442,360
1480526,351,450,362
1480527,353,449,362
1480528,355,453,364
1480529,355,453,365
1480530,356,454,365
1480531,353,450,362
1480532,353,449,362
1480533,351,445,360
1480534,351,443,360
1480535,349,444,357
1480536,348,441,356
1480537,348,441,355
1480538,346,436,355
1480539,345,439,353
1480540,344,439,354
1480541,344,439,353
1480542,346,438,354
1480543,346,439,355
1480544,345,439,355
1480545,347,440,355
1480546,347,442,357
1480547,348,443,358
1480548,350,440,359
1480549,350,444,358
1480550,348,444,358
1480551,348,443,357
1480552,347,445,357
1480553,349,449,359
1480554,349,447,357
1480555,349,449,359
1480556,349,449,358
1480557,350,448,359
1480558,349,448,358
1480559,349,447,358
1480560,351,446,358
1480561,351,446,358
1480562,351,446,359
1480563,350,447,358
1480564,350,446,361
1480565,352,448,361
1480566,352,448,362
1480567,352,447,362
1480568,352,451,363
1480569,354,450,363
1480570,352,451,363
1480571,354,452,362
1480572,354,452,364
1480573,355,455,364
1480574,356,458,366
1480575,358,463,368
1480576,359,465,369
1480577,360,466,369
1480578,360,465,370
1480579,361,461,371
1480580,359,457,369
1480581,358,453,365
1480582,356,452,366
1480583,355,453,364
1480584,357,454,367
1480585,356,454,367
1480586,357,451,368
1480587,357,449,366
1480588,357,451,367
1480589,356,451,366
1480590,354,451,364
1480591,354,447,364
1480592,353,448,361
1480593,352,449,360
1480594,351,449,360
1480595,350,451,359
1480596,353,455,362
1480597,353,459,363
1480598,355,459,365
1480599,357,460,365
1480600,358,460,367
1480601,358,459,367
1480602,357,454,368
1480603,356,452,366
1480604,357,451,364
1480605,354,452,365
1480606,356,451,365
1480607,356,452,365
1480608,356,454,366
1480609,355,452,364
1480610,354,454,365
1480611,354,453,364
1480612,354,454,364
1480613,355,453,364
1480614,356,451,363
1480615,355,451,365
1480616,355,454,363
1480617,355,455,364
1480618,356,455,364
1480619,357,458,366
1480620,358,457,366
1480621,359,461,369
1480622,360,464,370
1480623,362,466,373
1480624,364,466,373
1480625,365,463,375
1480626,366,467,375
1480627,365,467,375
1480628,364,466,375
1480629,364,464,374
1480630,366,465,375
1480631,364,463,373
1480632,361,460,371
1480633,360,458,370
1480634,359,458,367
1480635,359,456,367
1480636,357,454,364
1480637,356,456,363
1480638,355,455,366
1480639,355,452,363
1480640,354,454,363
1480641,356,454,364
1480642,357,454,364
1480643,356,455,366
1480644,356,457,368
1480645,358,458,367
1480646,360,459,370
1480647,360,460,371
1480648,362,465,372
1480649,363,469,374
1480650,366,473,376
1480651,368,475,376
1480652,368,475,378
1480653,369,469,379
1480654,366,468,374
1480655,364,463,374
1480656,362,459,370
1480657,361,457,367
1480658,359,456,367
1480659,359,456,367
1480660,358,457,367
1480661,358,456,368
1480662,359,458,369
1480663,361,459,369
1480664,361,461,371
1480665,362,463,371
1480666,363,463,372
1480667,363,460,374
1480668,364,460,372
1480669,363,460,372
1480670,362,459,371
1480671,361,460,372
1480672,361,461,371
1480673,360,463,370
1480674,361,464,369
1480675,361,464,369
1480676,361,461,371
1480677,359,464,370
1480678,358,462,369
1480679,361,463,369
1480680,362,465,370
1480681,361,460,372
1480682,361,464,372
1480683,361,458,372
1480684,362,459,372
1480685,360,455,369
1480686,360,456,370
1480687,359,456,369
1480688,361,459,369
1480689,359,461,369
1480690,361,464,370
1480691,361,462,371
1480692,361,463,371
1480693,361,462,370
1480694,359,463,369
1480695,359,462,369
1480696,358,461,370
1480697,359,462,368
1480698,359,463,370
1480699,361,465,370
1480700,364,465,372
1480701,364,467,373
1480702,364,466,373
1480703,363,463,374
1480704,365,463,374
1480705,362,462,374
1480706,362,461,372
1480707,361,460,371
1480708,364,461,372
1480709,363,461,372
1480710,361,459,370
1480711,361,459,370
1480712,361,459,370
1480713,360,460,368
1480714,358,458,370
1480715,359,459,367
1480716,358,458,368
1480717,358,460,367
1480718,359,454,368
1480719,357,456,368
1480720,358,453,366
1480721,356,455,367
1480722,356,453,365
1480723,353,452,365
1480724,355,452,366
1480725,354,453,366
1480726,355,453,365
1480727,355,453,366
1480728,356,453,366
1480729,356,453,365
1480730,354,453,365
1480731,356,454,364
1480732,356,453,364
1480733,356,456,364
1480734,357,458,366
1480735,358,457,366
1480736,358,461,367
1480737,360,466,368
1480738,360,464,369
1480739,361,464,370
1480740,360,457,370
1480741,362,459,371
1480742,360,459,371
1480743,361,456,369
1480744,359,453,369
1480745,360,452,369
1480746,360,457,369
1480747,360,459,371
1480748,359,460,370
1480749,360,462,370
1480750,362,461,373
1480751,363,463,371
1480752,363,466,372
1480753,364,466,373
1480754,362,467,372
1480755,362,465,372
1480756,363,465,372
1480757,362,463,370
1480758,361,460,370
1480759,362,462,371
1480760,360,459,367
1480761,359,458,367
1480762,359,458,368
1480763,360,456,369
1480764,358,457,368
1480765,359,458,370
1480766,359,457,370
1480767,361,459,371
1480768,363,461,372
1480769,360,461,371
1480770,361,460,370
1480771,359,461,369
1480772,358,459,369
1480773,358,455,367
1480774,359,457,367
1480775,358,457,368
1480776,359,457,368
1480777,357,459,366
1480778,357,460,367
1480779,359,461,368
1480780,360,463,368
1480781,361,463,370
1480782,362,462,371
1480783,362,462,371
1480784,363,460,371
1480785,362,461,371
1480786,362,461,373
1480787,362,462,372
1480788,362,466,374
1480789,362,467,374
1480790,364,469,374
1480791,365,468,374
1480792,364,467,374
1480793,364,461,373
1480794,362,461,372
1480795,362,457,371
1480796,360,458,369
1480797,358,455,367
1480798,358,457,368
1480799,358,456,366
1480800,355,453,366
1480801,357,453,363
1480802,355,454,364
1480803,354,453,365
1480804,357,454,366
1480805,357,456,366
1480806,358,456,367
1480807,358,459,368
1480808,359,460,370
1480809,361,461,369
1480810,360,464,371
1480811,361,462,371
1480812,360,463,370
1480813,359,462,370
1480814,360,460,370
1480815,360,462,368
1480816,361,458,369
1480817,359,456,367
1480818,359,459,367
1480819,358,458,367
1480820,356,457,366
1480821,360,458,367
1480822,357,458,368
1480823,359,455,369
1480824,360,457,369
1480825,361,459,369
1480826,361,457,371
1480827,361,461,371
1480828,361,464,373
1480829,363,467,374
1480830,365,468,374
1480831,365,474,374
1480832,364,466,374
1480833,363,464,374
1480834,361,462,371
1480835,360,460,368
1480836,358,462,367
1480837,357,456,368
1480838,355,457,366
1480839,356,455,364
1480840,356,454,366
1480841,357,452,367
1480842,357,454,368
1480843,358,457,367
1480844,359,455,369
1480845,358,458,369
1480846,360,458,370
1480847,360,459,369
1480848,361,460,370
1480849,361,462,370
1480850,361,462,371
1480851,360,460,370
1480852,359,459,369
1480853,359,459,368
1480854,356,456,367
1480855,357,456,367
1480856,356,455,365
1480857,356,453,365
1480858,355,454,365
1480859,354,452,363
1480860,353,453,363
1480861,354,452,363
1480862,355,454,364
1480863,354,452,364
1480864,356,453,364
1480865,357,452,365
1480866,356,454,366
1480867,357,452,367
1480868,358,455,368
1480869,359,456,366
1480870,358,456,367
1480871,358,458,366
1480872,358,458,366
1480873,358,459,367
1480874,357,458,366
1480875,358,457,366
1480876,357,455,365
1480877,357,458,366
1480878,356,456,365
1480879,356,456,365
1480880,356,456,366
1480881,356,455,368
1480882,357,456,367
1480883,358,455,367
1480884,358,455,368
1480885,358,459,369
1480886,359,456,369
1480887,359,460,371
1480888,361,460,370
1480889,361,461,369
1480890,361,464,372
1480891,363,467,373
1480892,364,465,374
1480893,364,469,374
1480894,366,469,375
1480895,366,470,375
1480896,365,466,375
1480897,364,467,374
1480898,364,464,373
1480899,364,464,373
1480900,363,462,373
1480901,363,459,373
1480902,360,455,370
1480903,360,457,370
1480904,360,455,370
1480905,358,454,369
1480906,359,455,368
1480907,359,456,369
1480908,359,453,368
1480909,358,454,368
1480910,358,455,368
1480911,357,455,366
1480912,356,455,367
1480913,358,455,367
1480914,356,455,364
1480915,356,457,363
1480916,356,453,364
1480917,356,456,364
1480918,357,457,365
1480919,357,455,366
1480920,357,456,365
1480921,357,456,366
1480922,357,455,367
1480923,359,457,367
1480924,359,456,368
1480925,358,456,367
1480926,356,456,367
1480927,358,458,368
1480928,358,455,368
1480929,359,458,371
1480930,359,460,369
1480931,360,459,368
1480932,358,460,369
1480933,360,459,368
1480934,360,455,367
1480935,359,457,367
1480936,358,455,366
1480937,357,456,365
1480938,356,455,364
1480939,357,455,363
1480940,355,453,367
1480941,356,455,365
1480942,355,457,366
1480943,359,457,367
1480944,359,456,368
1480945,360,459,371
1480946,361,460,371
1480947,362,460,372
1480948,363,461,371
1480949,361,460,372
1480950,362,459,371
1480951,361,461,371
1480952,360,464,371
1480953,362,465,370
1480954,362,467,373
1480955,362,469,373
1480956,363,468,372
1480957,364,468,372
1480958,363,465,371
1480959,362,464,372
1480960,361,462,372
1480961,361,457,371
1480962,361,460,371
1480963,360,460,370
1480964,360,458,370
1480965,359,462,371
1480966,362,461,371
1480967,363,458,372
1480968,363,461,372
1480969,361,462,371
1480970,362,462,372
1480971,361,462,371
1480972,361,461,369
1480973,358,461,369
1480974,359,462,367
1480975,360,462,368
1480976,359,459,369
1480977,360,459,367
1480978,357,459,367
1480979,358,457,367
1480980,359,457,368
1480981,357,457,367
1480982,358,456,367
1480983,358,453,368
1480984,360,457,369
1480985,360,457,368
1480986,359,459,369
1480987,361,459,370
1480988,360,459,370
1480989,358,461,368
1480990,360,462,369
1480991,360,462,369
1480992,360,462,368
1480993,360,462,371
1480994,359,462,370
1480995,361,463,369
1480996,359,462,369
1480997,360,463,370
1480998,362,465,370
1480999,362,467,371
1481000,362,463,371
1481001,362,463,371
1481002,362,461,371
1481003,362,461,372
1481004,362,461,371
1481005,362,463,372
1481006,363,463,373
1481007,363,465,373
1481008,363,466,373
1481009,364,468,374
1481010,366,470,375
1481011,367,469,376
1481012,368,472,378
1481013,367,471,377
1481014,367,470,375
1481015,367,470,376
1481016,365,468,374
1481017,365,462,372
1481018,364,464,374
1481019,364,461,373
1481020,364,463,371
1481021,364,466,373
1481022,363,463,374
1481023,364,464,374
1481024,363,465,373
1481025,364,464,374
1481026,365,464,375
1481027,366,465,374
1481028,363,466,374
1481029,365,463,374
1481030,364,466,374
1481031,365,463,373
1481032,364,463,372
1481033,363,465,372
1481034,360,463,372
1481035,361,464,373
1481036,361,463,369
1481037,362,462,371
1481038,361,458,369
1481039,360,462,370
1481040,360,461,369
1481041,361,458,371
1481042,361,461,372
1481043,362,461,371
1481044,363,461,373
1481045,363,460,373
1481046,364,464,373
1481047,364,466,374
1481048,364,466,374
1481049,365,467,376
1481050,365,465,374
1481051,364,465,373
1481052,364,466,373
1481053,364,464,375
1481054,364,465,374
1481055,362,466,372
1481056,363,461,372
1481057,363,466,373
1481058,364,467,373
1481059,364,467,373
1481060,364,467,375
1481061,365,464,374
1481062,366,467,375
1481063,366,464,376
1481064,366,467,375
1481065,365,465,375
1481066,364,464,376
1481067,365,465,374
1481068,365,466,375
1481069,365,466,376
1481070,365,464,374
1481071,365,465,374
1481072,365,468,374
1481073,365,467,373
1481074,365,472,375
1481075,364,468,374
1481076,364,475,375
1481077,365,470,375
1481078,366,471,376
1481079,366,471,375
1481080,367,471,376
1481081,367,471,377
1481082,367,470,378
1481083,368,472,378
1481084,369,471,377
1481085,369,474,380
1481086,368,473,380
1481087,369,475,380
1481088,371,471,380
1481089,370,472,380
1481090,368,471,379
1481091,368,471,378
1481092,366,469,376
1481093,365,469,376
1481094,365,468,375
1481095,366,468,375
1481096,365,467,374
1481097,364,467,373
1481098,364,466,373
1481099,363,466,374
1481100,365,466,374
1481101,365,465,375
1481102,366,466,374
1481103,365,465,375
1481104,365,467,375
1481105,365,467,375
1481106,366,467,376
1481107,367,466,376
1481108,367,464,377
1481109,366,468,375
1481110,367,468,376
1481111,367,465,376
1481112,366,469,375
1481113,367,466,376
1481114,366,467,376
1481115,367,468,373
1481116,365,466,373
1481117,365,467,373
1481118,365,468,374
1481119,366,467,373
1481120,366,470,375
1481121,367,470,377
1481122,369,472,377
1481123,367,472,378
1481124,368,472,375
1481125,369,472,380
1481126,369,472,379
1481127,370,472,376
1481128,369,470,378
1481129,370,467,377
1481130,369,470,376
1481131,367,468,375
1481132,368,471,374
1481133,368,472,374
1481134,368,471,372
1481135,366,470,376
1481136,364,470,375
1481137,364,471,373
1481138,366,469,373
1481139,366,469,373
1481140,365,470,376
1481141,366,470,377
1481142,368,468,379
1481143,366,472,379
1481144,367,472,377
1481145,369,469,378
1481146,368,470,378
1481147,370,469,376
1481148,367,466,380
1481149,367,469,379
1481150,367,472,378
1481151,367,472,380
1481152,366,472,380
1481153,365,470,376
1481154,368,468,374
1481155,368,471,377
1481156,367,468,379
1481157,369,470,377
1481158,365,470,376
1481159,366,469,375
1481160,367,470,376
1481161,365,469,376
1481162,367,465,377
1481163,368,468,376
1481164,366,468,377
1481165,366,466,378
1481166,366,465,378
1481167,366,468,376
1481168,367,470,378
1481169,367,471,378
1481170,366,469,378
1481171,367,467,376
1481172,368,467,372
1481173,366,469,376
1481174,365,470,376
1481175,365,469,374
1481176,365,466,371
1481177,365,467,372
1481178,364,468,375
1481179,363,466,374
1481180,363,463,375
1481181,364,466,374
1481182,364,465,373
1481183,364,466,373
1481184,363,462,372
1481185,365,465,373
1481186,365,465,373
1481187,364,466,373
1481188,363,467,376
1481189,364,467,374
1481190,363,465,372
1481191,365,466,374
1481192,364,467,372
1481193,364,466,373
1481194,364,462,373
1481195,362,458,372
1481196,361,461,368
1481197,361,457,370
1481198,359,458,368
1481199,357,454,366
1481200,356,453,366
1481201,356,454,366
1481202,356,452,364
1481203,356,449,366
1481204,354,451,366
1481205,353,450,364
1481206,354,448,367
1481207,353,447,368
1481208,352,445,366
1481209,351,445,364
1481210,351,445,364
1481211,349,440,361
1481212,349,443,358
1481213,347,442,357
1481214,346,438,356
1481215,346,440,354
1481216,347,439,352
1481217,345,437,352
1481218,344,435,353
1481219,344,435,352
1481220,343,433,351
1481221,341,430,349
1481222,344,434,351
1481223,342,431,350
1481224,340,432,350
1481225,342,431,350
1481226,341,431,351
1481227,339,430,350
1481228,340,428,350
1481229,338,430,348
1481230,339,430,349
1481231,338,430,348
1481232,340,426,347
1481233,338,427,347
1481234,337,428,347
1481235,337,426,345
1481236,335,427,344
1481237,336,425,344
1481238,335,424,344
1481239,334,423,342
1481240,333,423,343
1481241,333,422,343
1481242,334,420,343
1481243,333,418,342
1481244,332,420,342
1481245,334,422,341
1481246,333,421,342
1481247,334,424,344
1481248,334,423,342
1481249,335,422,344
1481250,335,425,344
1481251,336,426,344
1481252,336,420,342
1481253,333,424,342
1481254,335,422,343
1481255,333,420,343
1481256,334,421,344
1481257,334,423,344
1481258,334,423,343
1481259,335,422,344
1481260,335,422,341
1481261,335,422,342
1481262,334,422,340
1481263,335,422,342
1481264,335,421,343
1481265,336,427,344
1481266,336,425,346
1481267,338,431,347
1481268,340,435,350
1481269,339,431,350
1481270,341,432,350
1481271,340,433,350
1481272,339,435,351
1481273,343,437,352
1481274,341,436,351
1481275,340,434,348
1481276,344,438,351
1481277,344,439,350
1481278,343,438,352
1481279,345,438,352
1481280,343,437,352
1481281,344,438,352
1481282,343,434,351
1481283,343,433,352
1481284,344,435,352
1481285,344,435,352
1481286,344,435,353
1481287,345,438,353
1481288,346,438,353
1481289,344,437,354
1481290,344,439,354
1481291,346,439,353
1481292,346,439,354
1481293,345,442,353
1481294,345,438,353
1481295,346,438,353
1481296,346,440,354
1481297,346,439,355
1481298,345,440,353
1481299,346,439,354
1481300,346,441,355
1481301,345,441,355
1481302,347,441,356
1481303,347,443,355
1481304,349,442,357
1481305,347,442,357
1481306,349,444,357
1481307,351,445,358
1481308,349,444,359
1481309,351,445,360
1481310,352,446,359
1481311,350,449,359
1481312,352,449,360
1481313,351,450,361
1481314,351,450,361
1481315,352,451,360
1481316,351,449,360
1481317,351,450,361
1481318,353,448,361
1481319,353,448,362
1481320,353,449,363
1481321,353,449,362
1481322,353,449,363
1481323,354,449,364
1481324,354,452,363
1481325,355,452,364
1481326,355,453,363
1481327,355,453,365
1481328,356,454,364
1481329,356,456,366
1481330,357,456,366
1481331,357,456,368
1481332,357,456,368
1481333,358,459,368
1481334,359,457,367
1481335,358,459,367
1481336,358,457,367
1481337,357,458,368
1481338,356,457,366
1481339,357,458,369
1481340,359,455,369
1481341,359,459,369
1481342,359,458,368
1481343,359,458,369
1481344,360,459,369
1481345,359,461,371
1481346,358,462,371
1481347,362,462,369
1481348,361,463,371
1481349,362,464,372
1481350,364,463,374
1481351,362,465,372
1481352,364,467,373
1481353,363,467,375
1481354,364,469,374
1481355,364,468,374
1481356,366,469,374
1481357,364,468,375
1481358,364,468,375
1481359,364,468,374
1481360,365,466,376
1481361,365,467,375
1481362,365,467,376
1481363,366,467,375
1481364,367,469,377
1481365,368,470,376
1481366,366,470,376
1481367,366,469,377
1481368,368,469,378
1481369,367,466,377
1481370,368,471,377
1481371,368,469,375
1481372,366,470,375
1481373,367,471,375
1481374,367,471,375
1481375,367,471,374
1481376,367,470,375
1481377,367,469,374
1481378,365,469,373
1481379,365,470,376
1481380,367,470,374
1481381,366,470,376
1481382,366,466,377
1481383,367,468,377
1481384,367,471,378
1481385,367,471,379
1481386,366,470,378
1481387,368,471,379
1481388,370,472,378
1481389,369,474,379
1481390,368,474,380
1481391,369,473,378
1481392,368,474,379
1481393,368,476,379
1481394,369,472,378
1481395,369,474,378
1481396,369,472,378
1481397,368,472,378
1481398,368,472,378
1481399,368,472,379
1481400,368,473,378
1481401,370,473,380
1481402,368,473,379
1481403,369,472,379
1481404,369,471,378
1481405,369,472,380
1481406,371,474,381
1481407,371,476,379
1481408,372,475,381
1481409,372,476,382
1481410,372,478,382
1481411,371,479,382
1481412,372,479,383
1481413,372,478,382
1481414,374,478,382
1481415,372,480,382
1481416,369,477,381
1481417,371,477,382
1481418,370,475,381
1481419,371,475,381
1481420,371,474,381
1481421,371,474,380
1481422,371,474,381
1481423,370,475,381
1481424,371,474,381
1481425,371,474,382
1481426,371,475,381
1481427,370,474,382
1481428,370,471,381
1481429,371,475,381
1481430,370,474,382
1481431,370,475,380
1481432,371,475,381
1481433,369,474,379
1481434,370,472,379
1481435,368,474,379
1481436,370,474,379
1481437,369,474,379
1481438,369,474,380
1481439,370,474,380
1481440,371,473,380
1481441,369,473,379
1481442,370,473,379
1481443,370,473,380
1481444,370,474,380
1481445,370,475,381
1481446,371,475,382
1481447,372,474,380
1481448,371,475,381
1481449,371,474,381
1481450,372,475,381
1481451,370,475,382
1481452,369,475,380
1481453,371,477,380
1481454,371,473,380
1481455,369,474,379
1481456,370,476,379
1481457,370,474,379
1481458,369,475,379
1481459,371,472,380
1481460,371,474,379
1481461,369,473,379
1481462,371,473,380
1481463,370,474,382
1481464,371,472,380
1481465,370,473,381
1481466,371,475,383
1481467,371,475,382
1481468,371,475,382
1481469,371,477,381
1481470,371,477,381
1481471,372,476,381
1481472,372,475,381
1481473,372,474,381
1481474,371,476,382
1481475,371,477,381
1481476,372,477,379
1481477,370,476,381
1481478,371,476,381
1481479,372,473,381
1481480,371,475,381
1481481,371,476,381
1481482,370,477,381
1481483,371,475,382
1481484,370,475,382
1481485,372,476,383
1481486,372,476,383
1481487,372,478,382
1481488,372,477,383
1481489,373,478,383
1481490,373,478,382
1481491,374,476,382
1481492,373,479,382
1481493,372,478,383
1481494,372,478,383
1481495,371,473,381
1481496,371,478,382
1481497,372,476,382
1481498,371,474,381
1481499,371,475,381
1481500,372,474,381
1481501,372,474,380
1481502,372,476,381
1481503,370,474,382
1481504,372,475,382
1481505,373,476,382
1481506,372,476,384
1481507,374,477,383
1481508,373,478,384
1481509,374,475,384
1481510,372,479,383
1481511,375,477,384
1481512,372,477,382
1481513,372,479,382
1481514,372,476,381
1481515,372,478,382
1481516,372,478,380
1481517,371,478,381
1481518,370,477,380
1481519,372,477,380
1481520,371,476,382
1481521,370,476,383
1481522,372,474,382
1481523,372,474,382
1481524,371,477,382
1481525,371,478,383
1481526,373,479,383
1481527,375,478,383
1481528,374,479,384
1481529,374,478,383
1481530,374,478,384
1481531,372,479,385
1481532,372,480,382
1481533,371,478,382
1481534,371,479,382
1481535,371,477,381
1481536,372,477,382
1481537,373,477,381
1481538,372,476,380
1481539,370,477,381
1481540,371,474,381
1481541,372,476,383
1481542,372,476,382
1481543,371,477,382
1481544,373,476,382
1481545,373,476,384
1481546,373,476,384
1481547,373,478,384
1481548,373,478,384
1481549,373,479,384
1481550,374,476,383
1481551,374,479,383
1481552,374,479,382
1481553,373,479,381
1481554,371,478,383
1481555,372,479,382
1481556,371,478,382
1481557,371,477,381
1481558,371,476,381
1481559,372,474,381
1481560,372,473,382
1481561,371,474,382
1481562,371,476,381
1481563,372,474,382
1481564,373,477,382
1481565,373,477,384
1481566,373,475,385
1481567,373,477,383
1481568,373,478,383
1481569,374,478,384
1481570,374,478,383
1481571,373,479,382
1481572,371,479,382
1481573,373,477,382
1481574,373,477,381
1481575,371,477,381
1481576,371,478,380
1481577,372,477,379
1481578,370,475,380
1481579,370,475,380
1481580,372,474,381
1481581,371,476,382
1481582,369,475,382
1481583,371,475,382
1481584,372,475,382
1481585,372,476,382
1481586,371,474,383
1481587,373,473,382
1481588,372,476,383
1481589,373,477,384
1481590,372,476,382
1481591,371,477,384
1481592,371,477,382
1481593,369,476,381
1481594,372,474,381
1481595,371,477,381
1481596,370,476,380
1481597,371,473,380
1481598,369,475,379
1481599,370,473,379
1481600,370,471,381
1481601,371,474,380
1481602,371,474,381
1481603,372,474,382
1481604,370,474,381
1481605,371,474,380
1481606,371,472,380
1481607,369,476,380
1481608,371,476,382
1481609,371,476,381
1481610,369,474,380
1481611,369,475,381
1481612,371,476,380
1481613,371,475,381
1481614,370,477,381
1481615,370,473,379
1481616,370,475,380
1481617,371,474,379
1481618,370,474,378
1481619,369,475,379
1481620,370,474,379
1481621,370,473,379
1481622,369,472,379
1481623,370,471,379
1481624,369,472,380
1481625,370,474,379
1481626,370,474,381
1481627,370,473,381
1481628,372,474,380
1481629,371,476,381
1481630,370,474,380
1481631,369,474,379
1481632,370,473,379
1481633,369,471,379
1481634,368,472,378
1481635,369,471,377
1481636,369,471,377
1481637,367,472,378
1481638,369,469,377
1481639,368,467,377
1481640,368,471,378
1481641,367,471,377
1481642,367,471,377
1481643,368,472,378
1481644,369,472,378
1481645,370,471,378
1481646,369,473,380
1481647,370,472,379
1481648,368,473,380
1481649,368,472,379
1481650,371,470,379
1481651,369,471,379
1481652,367,474,378
1481653,368,473,377
1481654,368,470,378
1481655,368,472,377
1481656,367,470,376
1481657,367,469,377
1481658,367,472,376
1481659,366,469,377
1481660,367,471,376
1481661,366,470,377
1481662,368,469,376
1481663,366,468,378
1481664,367,469,379
1481665,367,471,378
1481666,368,469,378
1481667,369,472,379
1481668,367,471,379
1481669,367,471,379
1481670,367,474,379
1481671,369,470,378
1481672,368,473,379
1481673,370,471,378
1481674,368,471,379
1481675,365,472,378
1481676,368,472,376
1481677,365,472,376
1481678,366,470,375
1481679,364,469,376
1481680,366,468,376
1481681,365,467,376
1481682,365,467,376
1481683,366,468,376
1481684,367,467,377
1481685,366,469,378
1481686,366,469,375
1481687,365,469,377
1481688,367,469,377
1481689,367,468,378
1481690,368,469,376
1481691,367,470,377
1481692,364,470,376
1481693,367,469,376
1481694,365,469,376
1481695,365,471,376
1481696,365,470,375
1481697,366,465,375
1481698,367,468,375
1481699,365,467,375
1481700,366,467,375
1481701,365,465,377
1481702,367,467,375
1481703,365,467,377
1481704,366,467,375
1481705,366,466,376
1481706,367,466,374
1481707,365,468,376
1481708,367,467,375
1481709,366,466,376
1481710,366,470,376
1481711,367,472,375
1481712,367,470,375
1481713,365,470,375
1481714,366,470,377
1481715,366,471,376
1481716,367,470,375
1481717,366,468,375
1481718,365,467,375
1481719,366,467,374
1481720,364,466,374
1481721,363,466,375
1481722,364,465,376
1481723,365,466,375
1481724,366,466,375
1481725,366,464,375
1481726,364,465,376
1481727,366,466,375
1481728,365,465,375
1481729,364,466,376
1481730,365,467,374
1481731,365,466,375
1481732,364,467,373
1481733,363,467,372
1481734,364,466,372
1481735,363,465,372
1481736,364,466,373
1481737,363,466,373
1481738,362,466,373
1481739,363,464,371
1481740,363,464,372
1481741,363,463,374
1481742,364,464,374
1481743,364,467,373
1481744,365,466,374
1481745,365,465,375
1481746,365,464,375
1481747,363,465,375
1481748,365,467,376
1481749,365,467,374
1481750,364,465,373
1481751,365,465,375
1481752,364,466,374
1481753,364,466,373
1481754,363,463,374
1481755,363,465,372
1481756,362,463,372
1481757,364,463,372
1481758,362,464,372
1481759,362,461,371
1481760,362,463,371
1481761,362,462,370
1481762,361,463,371
1481763,361,463,371
1481764,362,463,372
1481765,363,464,374
1481766,363,461,374
1481767,363,466,374
1481768,365,463,374
1481769,365,466,374
1481770,363,465,371
1481771,362,463,373
1481772,362,464,372
1481773,362,462,371
1481774,361,465,370
1481775,362,463,371
1481776,361,463,370
1481777,363,463,371
1481778,361,462,371
1481779,361,463,371
1481780,361,462,370
1481781,361,463,369
1481782,361,462,371
1481783,363,460,371
1481784,362,460,371
1481785,362,461,372
1481786,364,463,373
1481787,363,460,373
1481788,362,464,372
1481789,363,464,373
1481790,363,462,371
1481791,362,461,372
1481792,362,464,371
1481793,362,463,372
1481794,360,460,370
1481795,360,459,370
1481796,361,464,370
1481797,360,462,369
1481798,361,461,368
1481799,360,461,369
1481800,361,462,369
1481801,361,461,372
1481802,361,463,371
1481803,363,461,371
1481804,361,462,371
1481805,363,463,372
1481806,360,462,372
1481807,360,462,369
1481808,361,464,372
1481809,362,464,373
1481810,361,463,372
1481811,362,465,371
1481812,363,464,370
1481813,361,465,370
1481814,360,464,371
1481815,361,464,370
1481816,360,461,369
1481817,361,461,369
1481818,361,459,369
1481819,361,462,370
1481820,361,461,370
1481821,361,459,371
1481822,361,462,369
1481823,361,461,370
1481824,361,461,371
1481825,360,461,371
1481826,361,458,372
1481827,362,461,372
1481828,362,462,370
1481829,362,461,372
1481830,362,461,372
1481831,361,463,371
1481832,361,464,370
1481833,360,462,370
1481834,360,461,368
1481835,360,461,369
1481836,361,460,370
1481837,362,461,370
1481838,360,461,367
1481839,360,458,368
1481840,359,460,370
1481841,361,460,369
1481842,361,461,370
1481843,361,461,370
1481844,360,460,370
1481845,362,458,372
1481846,362,460,372
1481847,360,461,370
1481848,362,458,371
1481849,362,462,371
1481850,362,463,371
1481851,361,463,370
1481852,359,462,371
1481853,361,462,369
1481854,361,461,369
1481855,360,461,370
1481856,360,461,369
1481857,361,459,369
1481858,361,460,370
1481859,359,459,367
1481860,359,459,369
1481861,359,462,369
1481862,361,459,369
1481863,359,459,369
1481864,359,460,368
1481865,360,459,370
1481866,361,461,369
1481867,361,460,370
1481868,361,459,372
1481869,362,461,370
1481870,362,461,370
1481871,361,462,369
1481872,362,461,369
1481873,361,462,368
1481874,360,460,369
1481875,359,459,368
1481876,361,460,368
1481877,360,460,370
1481878,359,460,368
1481879,359,457,367
1481880,360,460,369
1481881,359,458,369
1481882,359,459,369
1481883,360,460,370
1481884,362,459,369
1481885,360,461,370
1481886,360,459,370
1481887,361,462,370
1481888,361,463,371
1481889,361,462,370
1481890,361,463,371
1481891,361,463,372
1481892,361,461,371
1481893,360,461,371
1481894,360,461,369
1481895,360,461,370
1481896,360,461,370
1481897,359,460,369
1481898,359,458,370
1481899,358,457,367
1481900,359,460,368
1481901,360,458,368
1481902,359,460,369
1481903,359,459,368
1481904,360,460,371
1481905,361,457,371
1481906,362,459,372
1481907,363,462,371
1481908,361,461,374
1481909,362,459,372
1481910,361,459,370
1481911,362,462,371
1481912,362,461,370
1481913,360,463,369
1481914,359,461,370
1481915,361,463,370
1481916,359,459,369
1481917,360,463,369
1481918,359,462,370
1481919,361,461,369
1481920,361,462,369
1481921,360,459,370
1481922,361,460,371
1481923,361,461,372
1481924,362,461,370
1481925,362,460,369
1481926,362,461,372
1481927,362,462,371
1481928,362,462,372
1481929,362,462,373
1481930,362,462,371
1481931,361,463,371
1481932,362,462,369
1481933,360,460,370
1481934,362,462,369
1481935,361,460,368
1481936,360,461,369
1481937,359,460,368
1481938,359,459,368
1481939,359,461,368
1481940,360,458,369
1481941,360,457,369
1481942,361,462,370
1481943,360,461,370
1481944,360,460,371
1481945,361,459,370
1481946,362,461,371
1481947,362,462,372
1481948,362,461,372
1481949,362,463,372
1481950,360,463,370
1481951,362,461,371
1481952,360,461,371
1481953,362,460,371
1481954,361,460,371
1481955,363,463,371
1481956,360,457,371
1481957,361,459,369
1481958,360,461,369
1481959,361,462,370
1481960,361,457,369
1481961,361,457,370
1481962,361,460,369
1481963,362,460,371
1481964,361,457,371
1481965,360,461,372
1481966,361,461,372
1481967,361,462,373
1481968,362,461,372
1481969,362,465,372
1481970,362,466,373
1481971,362,462,373
1481972,361,458,369
1481973,361,463,370
1481974,359,461,371
1481975,359,462,369
1481976,360,460,369
1481977,360,460,369
1481978,359,457,369
1481979,359,460,369
1481980,359,460,370
1481981,359,460,370
1481982,359,458,370
1481983,362,459,369
1481984,361,461,371
1481985,361,459,371
1481986,362,461,370
1481987,362,462,372
1481988,361,464,371
1481989,362,464,371
1481990,361,463,372
1481991,361,464,370
1481992,362,463,370
1481993,362,461,371
1481994,361,463,370
1481995,361,461,369
1481996,360,461,370
1481997,360,461,370
1481998,361,460,369
1481999,361,458,370
1482000,357,459,370
1482001,358,459,370
1482002,360,461,368
1482003,360,460,368
1482004,359,461,371
1482005,362,461,370
1482006,361,460,371
1482007,362,460,372
1482008,361,463,371
1482009,363,464,372
1482010,362,464,373
1482011,362,463,372
1482012,362,465,371
1482013,362,466,371
1482014,362,462,372
1482015,362,465,370
1482016,361,462,371
1482017,361,465,371
1482018,360,462,370
1482019,361,460,371
1482020,362,463,371
1482021,360,461,372
1482022,361,463,371
1482023,361,459,371
1482024,362,462,371
1482025,362,460,372
1482026,364,461,373
1482027,363,465,373
1482028,365,465,373
1482029,364,462,374
1482030,363,466,373
1482031,364,464,373
1482032,363,465,373
1482033,363,462,371
1482034,362,463,372
1482035,362,464,372
1482036,361,463,371
1482037,362,464,372
1482038,362,461,371
1482039,360,462,371
1482040,362,463,372
1482041,362,462,372
1482042,363,462,373
1482043,363,464,373
1482044,363,465,373
1482045,365,460,374
1482046,363,465,374
1482047,363,465,374
1482048,366,463,374
1482049,365,464,374
1482050,365,465,372
1482051,363,464,373
1482052,361,465,371
1482053,363,463,371
1482054,361,463,372
1482055,362,464,371
1482056,361,465,371
1482057,363,463,372
1482058,362,461,371
1482059,362,462,371
1482060,362,459,372
1482061,363,462,371
1482062,363,461,371
1482063,363,462,371
1482064,362,463,372
1482065,363,460,372
1482066,363,463,373
1482067,362,464,372
1482068,363,463,373
1482069,363,466,372
1482070,364,465,373
1482071,362,463,374
1482072,362,464,374
1482073,363,463,372
1482074,360,463,370
1482075,360,463,370
1482076,361,463,371
1482077,361,463,370
1482078,361,462,372
1482079,362,460,370
1482080,361,462,371
1482081,362,464,371
1482082,362,461,371
1482083,362,461,370
1482084,361,462,372
1482085,361,463,371
1482086,362,463,372
1482087,362,463,371
1482088,361,460,373
1482089,363,464,372
1482090,363,464,373
1482091,363,462,371
1482092,361,463,372
1482093,363,465,372
1482094,363,463,371
1482095,362,463,371
1482096,360,461,370
1482097,360,463,370
1482098,361,462,370
1482099,360,462,371
1482100,362,462,370
1482101,361,462,371
1482102,362,463,372
1482103,363,460,372
1482104,363,464,372
1482105,361,465,372
1482106,361,464,373
1482107,363,464,372
1482108,363,463,371
1482109,363,465,373
1482110,363,464,372
1482111,361,465,372
1482112,362,464,372
1482113,364,465,372
1482114,361,464,372
1482115,362,464,371
1482116,363,464,373
1482117,361,464,371
1482118,361,463,371
1482119,361,463,371
1482120,361,463,372
1482121,361,461,372
1482122,362,462,372
1482123,364,464,371
1482124,364,465,373
1482125,365,464,373
1482126,363,465,373
1482127,364,463,374
1482128,365,464,374
1482129,365,461,373
1482130,363,463,374
1482131,364,467,374
1482132,365,465,376
1482133,364,464,374
1482134,365,464,373
1482135,364,466,371
1482136,361,465,372
1482137,363,465,371
1482138,362,464,371
1482139,362,464,371
1482140,363,463,373
1482141,362,463,373
1482142,364,463,373
1482143,363,465,374
1482144,364,463,374
1482145,364,465,375
1482146,365,467,375
1482147,365,463,376
1482148,364,465,375
1482149,364,466,375
1482150,365,466,376
1482151,364,467,374
1482152,363,465,373
1482153,362,464,373
1482154,363,466,372
1482155,362,465,372
1482156,361,464,371
1482157,362,461,370
1482158,361,459,370
1482159,361,459,371
1482160,362,461,370
1482161,361,462,371
1482162,363,460,372
1482163,362,460,372
1482164,363,460,372
1482165,361,463,373
1482166,363,462,373
1482167,362,463,372
1482168,363,465,372
1482169,363,465,371
1482170,362,464,374
1482171,363,464,371
1482172,361,463,372
1482173,362,464,372
1482174,362,464,371
1482175,361,464,370
1482176,361,465,372
1482177,363,463,370
1482178,362,465,370
1482179,361,461,371
1482180,363,461,371
1482181,362,459,372
1482182,363,458,372
1482183,363,460,372
1482184,362,464,374
1482185,362,463,372
1482186,364,463,374
1482187,362,465,374
1482188,363,465,372
1482189,362,466,372
1482190,363,465,373
1482191,364,470,375
1482192,364,463,374
1482193,363,467,374
1482194,364,467,372
1482195,363,466,373
1482196,362,465,373
1482197,361,463,371
1482198,361,464,371
1482199,363,464,372
1482200,360,464,371
1742212723584,NEW REP,,
1482201,363,463,372
1482202,362,463,371
1482203,363,461,373
1482204,361,464,373
1482205,361,462,373
1482206,364,466,372
1482207,363,464,373
1482208,363,463,373
1482209,364,464,374
1482210,365,468,374
1482211,364,465,374
1482212,362,467,373
1482213,363,467,372
1482214,363,466,372
1482215,361,463,370
1482216,363,464,371
1482217,362,464,371
1482218,362,462,370
1482219,362,463,371
1482220,362,462,372
1482221,361,463,371
1482222,362,458,371
1482223,363,462,373
1482224,363,463,373
1482225,363,464,374
1482226,363,464,373
1482227,365,462,375
1482228,364,462,374
1482229,362,464,374
1482230,364,463,373
1482231,362,461,372
1482232,363,464,372
1482233,362,461,373
1482234,362,463,372
1482235,361,462,372
1482236,362,464,371
1482237,360,462,370
1482238,362,462,370
1482239,362,459,371
1482240,360,459,370
1482241,360,463,371
1482242,361,463,370
1482243,362,459,374
1482244,362,461,373
1482245,362,462,372
1482246,363,463,372
1482247,363,463,374
1482248,364,462,374
1482249,364,466,374
1482250,366,464,375
1482251,365,464,373
1482252,366,467,373
1482253,365,467,373
1482254,366,463,374
1482255,364,463,372
1482256,363,464,372
1482257,362,466,370
1482258,362,462,370
1482259,362,462,372
1482260,361,463,370
1482261,361,461,372
1482262,361,462,372
1482263,361,462,371
1482264,362,461,372
1482265,361,462,372
1482266,362,463,373
1482267,361,463,372
1482268,362,464,373
1482269,362,464,371
1482270,360,464,372
1482271,363,464,372
1482272,363,464,373
1482273,362,463,371
1482274,362,461,371
1482275,362,464,373
1482276,363,462,371
1482277,363,463,372
1482278,363,462,371
1482279,361,463,371
1482280,362,464,372
1482281,362,462,371
1482282,362,461,371
1482283,362,463,372
1482284,363,462,371
1482285,363,467,372
1482286,363,467,374
1482287,365,467,375
1482288,365,469,374
1482289,363,469,376
1482290,366,470,375
1482291,366,471,375
1482292,366,469,376
1482293,365,467,374
1482294,365,467,374
1482295,364,463,373
1482296,362,466,374
1482297,363,465,373
1482298,364,465,373
1482299,363,464,374
1482300,364,463,374
1482301,363,463,374
1482302,364,465,374
1482303,364,466,375
1482304,364,465,373
1482305,364,465,374
1482306,363,466,375
1482307,364,467,374
1482308,364,467,373
1482309,364,468,373
1482310,365,467,375
1482311,364,470,375
1482312,365,469,375
1482313,366,470,375
1482314,365,470,374
1482315,367,472,375
1482316,367,473,377
1482317,366,473,376
1482318,367,472,376
1482319,366,471,378
1482320,368,466,376
1482321,365,467,377
1482322,366,466,376
1482323,367,465,378
1482324,366,465,374
1482325,366,463,375
1482326,366,466,375
1482327,366,466,375
1482328,365,465,375
1482329,365,463,376
1482330,364,466,373
1482331,364,468,375
1482332,364,469,373
1482333,364,471,375
1482334,364,472,375
1482335,367,474,376
1482336,368,473,377
1482337,369,475,378
1482338,367,477,380
1482339,369,475,378
1482340,370,473,380
1482341,370,475,380
1482342,371,471,379
1482343,371,471,380
1482344,370,473,380
1482345,369,473,382
1482346,370,474,380
1482347,370,472,380
1482348,370,474,381
1482349,370,471,380
1482350,369,475,380
1482351,369,475,381
1482352,370,474,379
1482353,370,474,379
1482354,369,472,377
1482355,367,471,376
1482356,366,469,377
1482357,367,464,376
1482358,365,467,374
1482359,364,472,373
1482360,365,461,374
1482361,364,462,375
1482362,364,462,373
1482363,363,464,373
1482364,365,463,375
1482365,364,465,374
1482366,365,463,375
1482367,365,468,373
1482368,365,468,375
1482369,365,466,376
1482370,367,470,375
1482371,365,471,376
1482372,365,471,374
1482373,366,467,376
1482374,366,470,376
1482375,366,465,374
1482376,364,467,373
1482377,363,466,374
1482378,363,464,372
1482379,362,464,372
1482380,364,463,373
1482381,364,462,373
1482382,363,466,373
1482383,364,466,375
1482384,365,466,375
1482385,366,466,376
1482386,368,469,376
1482387,366,470,378
1482388,368,471,378
1482389,367,469,378
1482390,367,473,378
1482391,367,468,377
1482392,369,473,377
1482393,368,469,377
1482394,366,466,377
1482395,366,466,376
1482396,364,467,374
1482397,363,464,373
1482398,363,462,372
1482399,362,462,372
1482400,362,461,370
1482401,362,463,374
1482402,363,463,373
1482403,366,470,376
1482404,364,470,375
1482405,366,470,377
1482406,368,470,376
1482407,366,474,379
1482408,367,470,376
1482409,368,468,376
1482410,366,465,375
1482411,366,464,376
1482412,365,465,374
1482413,366,469,376
1482414,365,472,374
1482415,367,470,376
1482416,365,470,376
1482417,365,468,376
1482418,366,465,375
1482419,366,466,375
1482420,366,464,375
1482421,364,462,374
1482422,364,460,374
1482423,364,464,372
1482424,363,461,374
1482425,364,460,375
1482426,364,462,372
1482427,364,463,374
1482428,363,461,373
1482429,361,461,370
1482430,361,462,371
1482431,362,463,371
1482432,361,465,371
1482433,363,463,371
1482434,361,465,372
1482435,362,464,372
1482436,363,462,371
1482437,362,464,372
1482438,362,464,371
1482439,361,462,370
1482440,361,461,370
1482441,361,461,371
1482442,361,465,372
1482443,363,463,374
1482444,365,465,373
1482445,366,465,374
1482446,365,465,373
1482447,364,464,371
1482448,363,460,371
1482449,360,458,371
1482450,360,455,370
1482451,358,456,369
1482452,360,458,368
1482453,359,459,369
1482454,359,457,367
1482455,359,459,369
1482456,359,460,367
1482457,358,459,368
1482458,360,455,367
1482459,357,454,366
1482460,356,454,365
1482461,358,455,367
1482462,357,460,368
1482463,360,466,371
1482464,365,473,376
1482465,367,481,378
1482466,371,482,383
1482467,374,482,385
1482468,374,483,386
1482469,375,479,386
1482470,374,476,384
1482471,371,472,381
1482472,367,466,376
1482473,365,466,376
1482474,365,464,374
1482475,362,463,372
1482476,362,464,371
1482477,362,461,371
1482478,361,459,371
1482479,361,461,369
1482480,361,462,369
1482481,362,460,369
1482482,361,460,370
1482483,360,457,370
1482484,361,456,370
1482485,360,456,369
1482486,359,455,368
1482487,358,454,368
1482488,358,456,367
1482489,359,458,366
1482490,358,457,367
1482491,357,458,367
1482492,359,460,366
1482493,359,459,367
1482494,359,458,365
1482495,359,459,368
1482496,358,460,368
1482497,359,459,369
1482498,359,459,367
1482499,359,456,367
1482500,357,454,368
1482501,356,454,366
1482502,356,453,365
1482503,355,452,366
1482504,356,451,365
1482505,355,453,365
1482506,356,452,367
1482507,357,454,367
1482508,357,456,368
1482509,358,459,368
1482510,357,459,368
1482511,359,457,368
1482512,359,457,369
1482513,358,463,367
1482514,360,466,370
1482515,362,467,372
1482516,364,469,373
1482517,363,467,375
1482518,366,468,375
1482519,366,466,376
1482520,365,463,375
1482521,363,462,373
1482522,362,460,373
1482523,362,460,371
1482524,359,458,371
1482525,361,456,370
1482526,359,455,368
1482527,359,453,368
1482528,358,453,367
1482529,357,453,365
1482530,358,454,365
1482531,357,456,366
1482532,358,456,366
1482533,358,457,366
1482534,358,458,366
1482535,358,457,367
1482536,357,458,365
1482537,358,456,366
1482538,355,452,365
1482539,355,451,363
1482540,355,449,364
1482541,354,446,362
1482542,353,450,364
1482543,355,451,364
1482544,356,451,366
1482545,355,456,366
1482546,356,457,367
1482547,357,456,367
1482548,355,456,366
1482549,356,453,365
1482550,355,450,363
1482551,353,448,362
1482552,353,449,362
1482553,352,447,361
1482554,352,448,359
1482555,352,448,360
1482556,352,447,359
1482557,350,449,360
1482558,350,449,360
1482559,350,449,360
1482560,353,449,359
1482561,352,449,361
1482562,353,449,363
1482563,353,452,363
1482564,356,452,364
1482565,355,452,365
1482566,356,456,365
1482567,358,457,368
1482568,358,460,367
1482569,359,458,369
1482570,357,457,367
1482571,360,457,368
1482572,359,462,369
1482573,362,466,371
1482574,362,467,371
1482575,363,467,371
1482576,364,467,373
1482577,362,462,373
1482578,360,465,372
1482579,361,460,371
1482580,359,459,369
1482581,360,454,369
1482582,358,451,368
1482583,357,450,366
1482584,356,449,364
1482585,353,446,363
1482586,353,447,364
1482587,352,447,363
1482588,353,448,362
1482589,353,449,361
1482590,354,450,361
1482591,353,449,362
1482592,354,452,363
1482593,353,452,362
1482594,353,450,363
1482595,352,449,361
1482596,352,450,361
1482597,353,451,361
1482598,354,448,362
1482599,355,455,364
1482600,355,458,366
1482601,358,462,368
1482602,359,462,370
1482603,360,462,371
1482604,361,462,373
1482605,360,461,371
1482606,360,464,371
1482607,360,455,369
1482608,359,452,367
1482609,357,452,365
1482610,355,451,366
1482611,355,449,365
1482612,353,453,363
1482613,355,451,363
1482614,354,451,362
1482615,353,452,362
1482616,354,452,361
1482617,353,452,363
1482618,354,450,362
1482619,354,449,362
1482620,352,449,362
1482621,352,446,361
1482622,351,445,360
1482623,353,448,361
1482624,352,448,363
1482625,354,448,364
1482626,354,452,365
1482627,355,452,364
1482628,356,455,366
1482629,357,456,365
1482630,356,455,366
1482631,356,454,366
1482632,356,454,366
1482633,355,454,365
1482634,355,455,365
1482635,355,452,365
1482636,353,452,362
1482637,355,451,364
1482638,355,457,364
1482639,357,458,366
1482640,357,459,367
1482641,358,457,367
1482642,358,457,367
1482643,357,453,367
1482644,357,451,366
1482645,355,449,364
1482646,355,450,364
1482647,357,451,363
1482648,355,452,364
1482649,353,452,363
1482650,355,450,362
1482651,354,452,362
1482652,354,454,364
1482653,353,453,361
1482654,354,451,364
1482655,353,450,362
1482656,352,449,361
1482657,351,447,359
1482658,350,444,357
1482659,348,443,358
1482660,349,441,357
1482661,348,442,356
1482662,348,443,357
1482663,349,447,360
1482664,351,452,360
1482665,353,454,364
1482666,353,457,366
1482667,355,459,366
1482668,358,460,366
1482669,359,457,367
1482670,357,456,367
1482671,359,455,367
1482672,355,452,364
1482673,355,451,363
1482674,354,449,362
1482675,354,451,363
1482676,352,452,361
1482677,353,452,364
1482678,355,453,364
1482679,353,451,363
1482680,354,451,363
1482681,353,451,364
1482682,354,451,364
1482683,354,449,363
1482684,353,451,363
1482685,354,450,362
1482686,355,447,363
1482687,354,447,364
1482688,353,450,363
1482689,355,453,363
1482690,354,452,364
1482691,355,451,363
1482692,353,449,364
1482693,353,451,361
1482694,351,447,362
1482695,352,447,361
1482696,350,445,360
1482697,350,450,361
1482698,350,452,361
1482699,354,453,364
1482700,355,456,365
1482701,357,458,366
1482702,357,458,366
1482703,359,457,368
1482704,359,459,368
1482705,360,461,369
1482706,362,461,372
1482707,362,462,372
1482708,362,464,372
1482709,362,465,372
1482710,364,463,372
1482711,363,460,371
1482712,361,460,370
1482713,360,459,368
1482714,357,457,369
1482715,357,460,367
1482716,359,464,369
1482717,360,462,370
1482718,361,463,371
1482719,362,465,372
1482720,363,464,372
1482721,364,463,373
1482722,362,462,372
1482723,363,461,372
1482724,363,459,372
1482725,362,459,371
1482726,360,457,370
1482727,361,459,370
1482728,360,457,368
1482729,357,456,367
1482730,357,456,365
1482731,355,456,366
1482732,356,455,365
1482733,357,456,367
1482734,356,456,365
1482735,357,459,366
1482736,358,456,367
1482737,358,462,367
1482738,359,462,369
1482739,360,463,371
1482740,361,463,372
1482741,363,462,371
1482742,361,460,372
1482743,359,459,372
1482744,361,461,371
1482745,362,460,374
1482746,363,462,374
1482747,363,465,373
1482748,364,467,373
1482749,363,463,373
1482750,364,464,373
1482751,363,464,372
1482752,363,465,373
1482753,363,461,372
1482754,363,464,372
1482755,364,468,373
1482756,364,471,373
1482757,366,472,376
1482758,367,472,376
1482759,367,469,377
1482760,367,465,376
1482761,366,466,376
1482762,365,461,374
1482763,363,459,373
1482764,363,459,371
1482765,362,461,373
1482766,364,467,376
1482767,366,469,376
1482768,367,474,377
1482769,368,473,377
1482770,369,469,377
1482771,366,467,375
1482772,365,463,374
1482773,363,456,371
1482774,361,454,369
1482775,358,456,366
1482776,358,455,367
1482777,358,457,367
1482778,358,460,368
1482779,359,460,369
1482780,361,461,369
1482781,362,463,372
1482782,362,464,372
1482783,363,461,373
1482784,362,466,374
1482785,364,465,375
1482786,364,467,376
1482787,365,471,375
1482788,369,471,376
1482789,369,471,378
1482790,368,473,379
1482791,367,471,377
1482792,367,470,376
1482793,367,470,376
1482794,365,468,375
1482795,365,469,374
1482796,366,472,375
1482797,367,474,376
1482798,368,476,379
1482799,369,475,378
1482800,371,475,380
1482801,370,475,380
1482802,369,470,379
1482803,368,468,377
1482804,367,464,378
1482805,365,463,376
1482806,366,462,375
1482807,366,466,374
1482808,363,468,374
1482809,365,466,375
1482810,363,467,374
1482811,363,467,374
1482812,363,465,374
1482813,362,463,372
1482814,362,460,371
1482815,360,461,369
1482816,361,461,370
1482817,362,463,370
1482818,361,458,370
1482819,362,464,371
1482820,364,467,373
1482821,364,467,373
1482822,365,469,375
1482823,364,468,376
1482824,365,468,376
1482825,367,467,376
1482826,366,467,376
1482827,366,467,375
1482828,365,469,376
1482829,367,467,375
1482830,364,466,374
1482831,365,467,374
1482832,364,468,375
1482833,365,467,373
1482834,364,465,372
1482835,364,465,374
1482836,364,464,372
1482837,363,464,371
1482838,363,463,371
1482839,364,461,373
1482840,362,462,373
1482841,362,463,374
1482842,363,463,372
1482843,363,466,374
1482844,364,466,376
1482845,366,472,377
1482846,368,474,378
1482847,370,472,379
1482848,369,475,379
1482849,371,473,380
1482850,371,472,380
1482851,371,475,379
1482852,369,474,378
1482853,369,474,378
1482854,367,471,376
1482855,368,467,376
1482856,366,466,374
1482857,366,464,373
1482858,364,463,371
1482859,363,464,373
1482860,365,466,374
1482861,365,466,376
1482862,365,469,377
1482863,368,465,378
1482864,366,471,377
1482865,367,469,377
1482866,367,472,378
1482867,371,480,380
1482868,374,485,385
1482869,376,493,387
1482870,380,496,390
1482871,381,499,391
1482872,382,496,393
1482873,383,493,392
1482874,379,490,391
1482875,380,482,390
1482876,376,480,387
1482877,374,481,386
1482878,373,481,384
1482879,376,483,386
1482880,375,483,384
1482881,375,480,386
1482882,374,477,385
1482883,372,471,383
1482884,371,472,383
1482885,370,468,379
1482886,367,464,379
1482887,369,466,378
1482888,367,471,376
1482889,367,471,377
1482890,367,470,377
1482891,368,472,378
1482892,370,477,380
1482893,370,474,378
1482894,369,473,378
1482895,369,472,379
1482896,367,472,376
1482897,367,472,379
1482898,369,474,378
1482899,367,472,378
1482900,369,469,379
1482901,367,469,377
1482902,366,468,376
1482903,367,468,376
1482904,366,470,377
1482905,367,471,378
1482906,370,481,380
1482907,374,488,385
1482908,377,496,390
1482909,381,499,393
1482910,385,499,395
1482911,383,495,394
1482912,382,488,392
1482913,380,482,389
1482914,376,477,385
1482915,372,474,383
1482916,371,469,380
1482917,368,469,379
1482918,368,465,377
1482919,366,462,376
1482920,362,461,374
1482921,363,460,372
1482922,361,460,372
1482923,362,460,370
1482924,363,459,370
1482925,361,458,370
1482926,361,459,370
1482927,361,459,371
1482928,361,462,368
1482929,361,459,369
1482930,361,459,370
1482931,363,465,371
1482932,364,469,374
1482933,365,475,376
1482934,366,480,377
1482935,369,477,379
1482936,370,478,379
1482937,369,473,380
1482938,370,471,379
1482939,370,469,378
1482940,368,470,378
1482941,369,472,379
1482942,369,477,379
1482943,372,480,382
1482944,375,486,386
1482945,376,487,388
1482946,377,489,388
1482947,377,488,388
1482948,380,483,389
1482949,377,483,387
1482950,375,478,386
1482951,375,478,385
1482952,375,481,385
1482953,376,484,385
1482954,375,485,386
1482955,376,483,385
1482956,374,480,383
1482957,372,476,382
1482958,372,473,380
1482959,370,465,378
1482960,367,463,375
1482961,365,461,376
1482962,363,461,374
1482963,363,460,372
1482964,364,461,372
1482965,363,464,374
1482966,365,472,375
1482967,370,480,378
1482968,374,489,384
1482969,375,491,388
1482970,378,492,390
1482971,379,493,390
1482972,380,489,389
1482973,378,484,387
1482974,376,476,385
1482975,374,476,383
1482976,372,474,382
1482977,371,470,380
1482978,368,468,377
1482979,365,463,377
1482980,364,460,374
1482981,362,458,372
1482982,361,458,369
1482983,359,455,369
1482984,359,455,369
1482985,359,456,369
1482986,359,457,368
1482987,360,458,369
1482988,360,457,368
1482989,359,463,370
1482990,361,465,372
1482991,362,468,374
1482992,364,470,374
1482993,364,468,374
1482994,364,463,373
1482995,364,460,372
1482996,361,460,371
1482997,359,458,368
1482998,358,456,367
1482999,359,457,368
1483000,361,460,370
1483001,361,465,370
1483002,363,469,374
1483003,367,477,378
1483004,371,484,381
1483005,374,487,386
1483006,374,487,387
1483007,376,481,387
1483008,374,476,384
1483009,371,471,379
1483010,368,467,379
1483011,366,464,374
1483012,364,458,371
1483013,362,459,371
1483014,361,458,369
1483015,359,456,368
1483016,356,455,366
1483017,356,452,366
1483018,357,456,366
1483019,358,457,367
1483020,358,459,369
1483021,359,462,370
1483022,362,459,368
1483023,361,460,371
1483024,360,459,370
1483025,362,457,369
1483026,360,455,369
1483027,359,456,369
1483028,358,460,369
1483029,359,460,368
1483030,360,461,370
1483031,359,464,370
1483032,361,464,371
1483033,364,470,372
1483034,364,473,374
1483035,367,475,376
1483036,366,476,378
1483037,370,477,380
1483038,369,475,381
1483039,369,474,379
1483040,369,468,379
1483041,368,464,377
1483042,364,463,377
1483043,365,461,374
1483044,365,458,372
1483045,363,460,371
1483046,361,458,371
1483047,360,456,370
1483048,359,453,367
1483049,357,450,366
1483050,356,452,363
1483051,353,449,363
1483052,353,448,363
1483053,354,450,360
1483054,351,450,360
1483055,351,451,360
1483056,351,448,359
1483057,351,448,360
1483058,351,449,360
1483059,349,450,360
1483060,351,450,362
1483061,353,450,362
1483062,354,452,363
1483063,354,451,364
1483064,354,452,364
1483065,355,452,364
1483066,354,453,363
1483067,354,454,365
1483068,356,457,366
1483069,358,459,367
1483070,361,468,371
1483071,366,475,375
1483072,368,484,377
1483073,372,484,381
1483074,373,483,382
1483075,372,475,382
1483076,370,474,380
1483077,369,465,376
1483078,365,459,374
1483079,362,455,371
1483080,360,450,368
1483081,358,450,365
1483082,355,450,365
1483083,355,448,365
1483084,355,450,363
1483085,355,452,365
1483086,356,456,367
1483087,357,459,368
1483088,361,465,370
1483089,364,472,373
1483090,366,478,376
1483091,369,482,380
1483092,372,483,381
1483093,372,481,382
1483094,371,477,382
1483095,369,472,379
1483096,367,462,376
1483097,363,459,373
1483098,362,454,369
1483099,358,451,367
1483100,356,448,365
1483101,354,442,363
1483102,353,443,361
1483103,352,441,360
1483104,349,440,359
1483105,346,438,357
1483106,345,437,355
1483107,346,433,355
1483108,344,436,353
1483109,344,437,353
1483110,345,434,352
1483111,343,433,350
1483112,343,433,351
1483113,341,436,351
1483114,342,433,349
1483115,342,434,352
1483116,341,436,351
1483117,342,435,351
1483118,343,438,352
1483119,344,440,352
1483120,344,439,355
1483121,346,440,355
1483122,347,442,356
1483123,348,443,357
1483124,349,444,358
1483125,349,448,360
1483126,352,446,359
1483127,349,445,359
1483128,350,448,360
1483129,350,443,359
1483130,349,445,358
1483131,350,446,358
1483132,351,448,358
1483133,351,449,359
1483134,350,448,360
1483135,352,451,360
1483136,352,452,362
1483137,354,449,362
1483138,355,455,363
1483139,358,461,366
1483140,359,465,369
1483141,361,465,372
1483142,362,466,374
1483143,364,461,373
1483144,361,459,371
1483145,361,457,370
1483146,360,455,367
1483147,358,453,369
1483148,355,455,366
1483149,355,454,365
1483150,356,454,365
1483151,354,454,364
1483152,355,451,365
1483153,355,452,365
1483154,357,457,365
1483155,358,458,364
1483156,357,457,366
1483157,358,458,366
1483158,357,456,366
1483159,357,454,365
1483160,356,454,366
1483161,356,452,365
1483162,357,452,365
1483163,356,453,365
1483164,356,452,365
1483165,356,455,366
1483166,357,457,367
1483167,357,459,368
1483168,360,461,368
1483169,359,460,368
1483170,362,463,371
1483171,362,465,369
1483172,362,465,371
1483173,363,465,370
1483174,362,460,371
1483175,361,462,369
1483176,361,460,368
1483177,358,457,368
1483178,359,456,369
1483179,358,455,368
1483180,358,455,366
1483181,357,454,365
1483182,358,454,365
1483183,358,454,367
1483184,356,458,368
1483185,357,458,367
1483186,359,458,369
1483187,359,458,368
1483188,359,457,368
1483189,359,459,369
1483190,359,460,368
1483191,358,457,368
1483192,358,458,367
1483193,357,457,366
1483194,355,456,366
1483195,356,454,365
1483196,356,449,363
1483197,353,449,362
1483198,351,450,361
1483199,352,448,362
1483200,353,447,359
1483201,353,447,362
1483202,352,448,361
1483203,352,448,362
1483204,353,449,361
1483205,353,451,363
1483206,354,449,363
1483207,356,456,365
1483208,357,456,366
1483209,357,458,366
1483210,358,460,367
1483211,359,460,368
1483212,360,460,369
1483213,360,460,369
1483214,359,461,368
1483215,358,461,368
1483216,360,460,367
1483217,360,460,369
1483218,362,463,370
1483219,361,462,372
1483220,363,464,373
1483221,362,465,373
1483222,362,460,372
1483223,361,460,372
1483224,362,458,370
1483225,359,457,369
1483226,358,454,368
1483227,357,454,366
1483228,357,453,367
1483229,356,450,368
1483230,356,453,364
1483231,355,452,363
1483232,355,453,363
1483233,353,454,363
1483234,354,453,364
1483235,354,454,363
1483236,355,455,363
1483237,354,456,363
1483238,356,455,367
1483239,358,456,365
1483240,358,457,367
1483241,355,456,367
1483242,357,458,367
1483243,359,458,368
1483244,360,460,370
1483245,359,460,370
1483246,360,462,371
1483247,360,462,371
1483248,359,462,370
1483249,361,462,370
1483250,360,461,371
1483251,360,462,370
1483252,360,462,370
1483253,361,463,370
1483254,360,463,371
1483255,361,462,370
1483256,360,463,369
1483257,360,460,371
1483258,359,458,370
1483259,358,457,368
1483260,357,460,369
1483261,359,463,368
1483262,360,461,371
1483263,360,457,370
1483264,360,459,369
1483265,361,460,370
1483266,359,458,369
1483267,360,457,369
1483268,360,456,368
1483269,359,457,367
1483270,358,456,368
1483271,358,458,367
1483272,358,456,366
1483273,358,458,366
1483274,358,460,366
1483275,358,463,368
1483276,360,464,369
1483277,361,464,371
1483278,361,463,371
1483279,362,458,371
1483280,360,458,371
1483281,359,455,368
1483282,357,455,368
1483283,358,454,368
1483284,357,454,367
1483285,358,456,368
1483286,358,454,368
1483287,357,458,367
1483288,357,458,367
1483289,358,458,367
1483290,358,458,367
1483291,358,459,366
1483292,360,457,367
1483293,357,457,366
1483294,356,457,365
1483295,355,455,367
1483296,355,456,366
1483297,356,455,365
1483298,358,457,366
1483299,358,460,369
1483300,359,460,369
1483301,359,458,368
1483302,359,458,368
1483303,359,456,368
1483304,360,457,370
1483305,360,460,371
1483306,361,461,371
1483307,363,462,372
1483308,362,468,373
1483309,365,471,375
1483310,365,471,376
1483311,366,467,375
1483312,366,463,374
1483313,362,464,374
1483314,361,460,372
1483315,360,458,368
1483316,360,456,368
1483317,359,456,368
1483318,359,456,367
1483319,360,457,368
1483320,358,456,368
1483321,359,457,368
1483322,358,457,368
1483323,359,456,369
1483324,359,455,368
1483325,357,454,367
1483326,358,455,366
1483327,358,456,367
1483328,358,455,368
1483329,357,455,368
1483330,357,454,366
1483331,356,453,367
1483332,355,456,365
1483333,356,455,366
1483334,357,457,366
1483335,357,458,366
1483336,357,458,364
1483337,358,458,367
1483338,357,453,367
1483339,356,451,366
1483340,357,453,367
1483341,356,453,366
1483342,357,455,366
1483343,357,455,368
1483344,359,456,367
1483345,359,454,368
1483346,358,456,367
1483347,357,456,365
1483348,357,456,367
1483349,358,457,366
1483350,356,456,365
1483351,358,458,367
1483352,357,457,367
1483353,357,456,366
1483354,357,451,364
1483355,355,454,364
1483356,355,454,365
1483357,354,452,363
1483358,354,450,364
1483359,354,451,361
1483360,354,450,363
1483361,353,451,363
1483362,356,453,364
1483363,357,455,366
1483364,358,457,368
1483365,359,459,367
1483366,359,458,369
1483367,358,455,367
1483368,358,456,367
1483369,356,456,367
1483370,357,452,367
1483371,355,456,366
1483372,357,457,364
1483373,357,458,366
1483374,358,460,367
1483375,359,463,369
1483376,360,463,369
1483377,359,464,370
1483378,360,465,371
1483379,362,462,371
1483380,362,462,372
1483381,361,461,374
