Time (ms),Bicep,Shoulder,Tricep
,362,461,371
2970702,360,462,369
2970703,362,461,372
2970704,361,461,371
2970705,363,462,372
2970706,363,462,372
2970707,363,460,372
2970708,363,461,372
2970709,363,462,372
2970710,363,462,373
2970711,362,462,372
2970712,362,461,372
2970713,362,464,371
2970714,361,463,372
2970715,362,462,371
2970716,362,463,371
2970717,361,462,370
2970718,360,463,370
2970719,360,461,369
2970720,361,457,370
2970721,361,461,370
2970722,362,462,370
2970723,361,461,372
2970724,363,460,372
2970725,364,460,372
2970726,363,464,372
2970727,362,462,372
2970728,362,464,372
2970729,362,463,372
2970730,363,464,372
2970731,362,464,372
2970732,363,464,372
2970733,362,465,372
2970734,363,463,370
2970735,362,463,372
2970736,361,462,371
2970737,362,462,372
2970738,362,462,371
2970739,362,462,371
2970740,361,461,370
2970741,359,461,371
2970742,360,460,369
2970743,361,461,371
2970744,361,459,371
2970745,363,460,372
2970746,361,464,373
2970747,362,462,373
2970748,363,464,373
2970749,363,464,374
2970750,364,462,372
2970751,363,464,372
2970752,363,465,372
2970753,363,461,372
2970754,363,463,371
2970755,362,463,370
2970756,360,460,369
2970757,359,461,370
2970758,361,461,370
2970759,360,462,368
2970760,360,460,370
2970761,362,462,371
2970762,359,461,370
2970763,362,462,370
2970764,362,461,371
2970765,362,461,372
2970766,362,462,372
2970767,361,462,372
2970768,363,463,371
2970769,362,462,372
2970770,361,461,369
2970771,363,461,371
2970772,362,464,371
2970773,360,463,370
2970774,361,464,370
2970775,361,462,372
2970776,361,462,369
2970777,361,460,371
2970778,361,460,371
2970779,361,461,370
2970780,360,460,370
2970781,362,461,369
2970782,362,463,371
2970783,360,462,372
2970784,360,462,370
2970785,361,462,372
2970786,363,459,372
2970787,363,462,371
2970788,364,462,373
2970789,363,462,372
2970790,362,465,372
2970791,362,463,374
2970792,362,462,372
2970793,361,464,371
2970794,363,463,371
2970795,361,459,372
2970796,361,461,371
2970797,360,461,369
2970798,359,461,370
2970799,361,460,370
2970800,360,461,370
2970801,361,462,369
2970802,361,461,371
2970803,360,460,371
2970804,361,461,371
2970805,362,459,372
2970806,362,462,371
2970807,362,462,371
2970808,362,462,372
2970809,363,463,372
2970810,363,463,371
2970811,362,462,370
2970812,362,463,372
2970813,361,463,371
2970814,361,463,371
2970815,362,464,370
2970816,361,462,370
2970817,360,462,367
2970818,362,459,370
2970819,359,459,372
2970820,362,461,370
2970821,362,462,369
2970822,362,461,372
2970823,361,462,372
2970824,362,459,372
2970825,362,459,373
2970826,362,462,372
2970827,362,459,373
2970828,363,463,372
2970829,363,463,372
2970830,363,463,371
2970831,361,464,372
2970832,361,461,370
2970833,362,463,370
2970834,363,462,370
2970835,362,461,370
2970836,362,462,371
2970837,360,461,370
2970838,361,461,368
2970839,360,461,370
2970840,360,459,370
2970841,360,462,371
2970842,361,461,369
2970843,360,460,370
2970844,361,457,372
2970845,361,460,371
2970846,362,461,373
2970847,362,462,373
2970848,363,458,372
2970849,362,464,372
2970850,362,463,371
2970851,361,464,372
2970852,362,464,371
2970853,362,463,371
2970854,362,460,371
2970855,360,463,371
2970856,361,462,370
2970857,362,463,369
2970858,361,460,370
2970859,359,459,371
2970860,359,461,369
2970861,360,459,370
2970862,360,460,370
2970863,360,461,370
2970864,362,462,371
2970865,363,462,372
2970866,363,462,372
2970867,363,461,372
2970868,362,463,373
2970869,362,463,373
2970870,363,461,371
2970871,362,464,372
2970872,361,463,371
2970873,361,462,371
2970874,362,462,371
2970875,361,464,372
2970876,362,462,370
2970877,361,461,370
2970878,359,460,369
2970879,360,462,370
2970880,359,461,369
2970881,360,460,369
2970882,359,459,370
2970883,360,461,371
2970884,360,460,370
2970885,362,462,371
2970886,361,461,372
2970887,361,461,371
2970888,363,461,372
2970889,361,462,372
2970890,362,462,370
2970891,360,463,371
2970892,361,461,371
2970893,361,464,372
2970894,360,463,371
2970895,361,461,369
2970896,360,461,369
2970897,360,462,369
2970898,360,460,370
2970899,360,459,370
2970900,360,459,370
2970901,361,459,371
2970902,360,460,370
2970903,359,460,370
2970904,360,460,370
2970905,360,461,371
2970906,362,458,371
2970907,361,461,372
2970908,362,462,371
2970909,361,464,372
2970910,362,462,371
2970911,361,460,372
2970912,363,464,370
2970913,362,462,370
2970914,361,462,371
2970915,361,460,369
2970916,362,462,370
2970917,361,462,368
2970918,360,461,368
2970919,360,457,370
2970920,362,460,369
2970921,360,460,369
2970922,359,459,371
2970923,359,459,370
2970924,360,461,372
2970925,363,459,372
2970926,361,461,372
2970927,361,459,371
2970928,361,461,372
2970929,364,462,372
2970930,361,463,370
2970931,362,462,371
2970932,362,461,371
2970933,361,459,371
2970934,360,463,370
2970935,361,462,370
2970936,359,462,369
2970937,360,459,370
2970938,360,460,370
2970939,359,462,369
2970940,361,460,372
2970941,360,457,370
2970942,360,458,371
2970943,361,459,369
2970944,361,461,371
2970945,361,462,371
2970946,362,461,372
2970947,360,461,373
2970948,361,462,372
2970949,360,462,372
2970950,361,463,370
2970951,361,461,370
2970952,361,464,371
2970953,362,463,370
2970954,361,463,370
2970955,362,462,368
2970956,361,462,370
2970957,360,461,369
2970958,359,460,369
2970959,358,460,368
2970960,360,461,367
2970961,359,460,369
2970962,361,461,370
2970963,360,460,370
2970964,360,458,372
2970965,361,461,371
2970966,360,461,372
2970967,362,458,372
2970968,362,462,371
2970969,363,461,371
2970970,362,463,370
2970971,361,464,372
2970972,362,463,371
2970973,362,462,371
2970974,361,463,371
2970975,361,462,371
2970976,361,461,370
2970977,359,459,368
2970978,360,461,370
2970979,360,460,367
2970980,360,458,371
2970981,361,460,370
2970982,360,459,370
2970983,361,462,370
2970984,360,460,371
2970985,362,463,371
2970986,362,460,372
2970987,362,462,372
2970988,361,460,372
2970989,362,462,371
2970990,362,462,373
2970991,362,461,372
2970992,362,461,370
2970993,361,460,370
2970994,362,462,370
2970995,360,461,369
2970996,361,461,371
2970997,361,462,370
2970998,359,459,371
2970999,359,461,369
2971000,361,460,369
2971001,362,461,369
2971002,361,460,370
2971003,361,461,371
2971004,359,462,371
2971005,362,461,372
2971006,361,461,372
2971007,362,461,372
2971008,362,462,372
2971009,363,464,371
2971010,363,464,371
2971011,362,464,371
2971012,363,462,370
2971013,361,463,371
2971014,361,463,372
2971015,360,463,371
2971016,361,462,369
2971017,361,462,370
2971018,359,460,370
2971019,359,461,370
2971020,360,460,370
2971021,360,460,369
2971022,361,459,370
2971023,362,462,371
2971024,361,457,371
2971025,362,458,371
2971026,361,461,371
2971027,364,462,372
2971028,361,462,372
2971029,363,462,372
2971030,362,465,372
2971031,363,463,372
2971032,362,462,372
2971033,362,461,371
2971034,361,464,371
2971035,362,462,371
2971036,360,462,370
2971037,361,463,369
2971038,362,461,369
2971039,359,461,368
2971040,359,460,369
2971041,359,460,369
2971042,360,459,370
2971043,360,459,370
2971044,361,460,372
2971045,361,461,372
2971046,363,462,373
2971047,362,463,373
2971048,363,463,373
2971049,362,461,374
2971050,363,461,371
2971051,364,464,371
2971052,361,462,370
2971053,361,462,371
2971054,362,464,369
2971055,360,462,372
2971056,360,462,371
2971057,360,463,369
2971058,361,462,370
2971059,360,461,369
2971060,362,460,369
2971061,360,461,370
2971062,361,460,369
2971063,361,457,370
2971064,362,462,370
2971065,361,463,371
2971066,361,462,371
2971067,362,462,370
2971068,362,462,370
2971069,362,462,371
2971070,362,462,371
2971071,361,464,371
2971072,362,461,370
2971073,361,462,370
2971074,361,463,370
2971075,360,461,370
2971076,360,462,369
2971077,360,462,369
2971078,360,460,369
2971079,359,460,369
2971080,360,458,369
2971081,360,459,371
2971082,359,460,371
2971083,361,459,372
2971084,361,460,372
2971085,362,457,372
2971086,362,461,372
2971087,362,461,371
2971088,361,462,373
2971089,363,460,373
2971090,361,462,372
2971091,361,459,372
2971092,362,463,371
2971093,362,462,370
2971094,362,461,370
2971095,362,461,369
2971096,360,461,371
2971097,361,461,369
2971098,359,460,368
2971099,359,456,370
2971100,360,460,370
2971101,360,460,369
2971102,358,460,369
2971103,359,460,371
2971104,359,458,369
2971105,362,459,370
2971106,361,461,370
2971107,361,460,372
2971108,362,461,372
2971109,362,460,371
2971110,362,463,370
2971111,363,462,370
2971112,362,461,370
2971113,361,459,370
2971114,359,461,369
2971115,360,459,368
2971116,360,461,368
2971117,358,459,368
2971118,359,460,369
2971119,360,460,369
2971120,359,458,369
2971121,359,459,370
2971122,360,460,369
2971123,360,460,369
2971124,360,459,369
2971125,361,460,371
2971126,362,460,372
2971127,361,461,372
2971128,362,461,372
2971129,362,459,371
2971130,361,463,371
2971131,361,462,370
2971132,360,462,371
2971133,361,462,371
2971134,362,460,370
2971135,358,460,369
2971136,358,461,369
2971137,359,460,370
2971138,358,460,370
2971139,359,462,370
2971140,359,460,367
2971141,358,458,368
2971142,358,459,369
2971143,360,456,370
2971144,360,459,371
2971145,362,457,371
2971146,360,460,369
2971147,360,461,371
2971148,362,460,371
2971149,362,461,370
2971150,361,461,371
2971151,361,458,371
2971152,361,461,369
2971153,361,461,371
2971154,360,461,367
2971155,361,461,369
2971156,360,462,368
2971157,360,460,368
2971158,359,461,368
2971159,358,460,368
2971160,359,457,369
2971161,360,459,367
2971162,361,459,369
2971163,361,456,370
2971164,362,460,370
2971165,361,460,370
2971166,362,460,371
2971167,363,460,371
2971168,361,461,372
2971169,362,461,370
2971170,359,459,371
2971171,361,461,372
2971172,359,460,370
2971173,359,463,369
2971174,360,461,370
2971175,361,460,369
2971176,359,459,368
2971177,359,461,368
2971178,357,459,368
2971179,359,457,368
2971180,360,459,368
2971181,358,459,368
2971182,359,459,368
2971183,360,459,370
2971184,362,460,369
2971185,361,460,371
2971186,362,461,371
2971187,363,460,371
2971188,360,462,370
2971189,363,462,372
2971190,361,461,370
2971191,361,461,368
2971192,360,460,371
2971193,360,462,369
2971194,360,461,369
2971195,359,459,368
2971196,360,463,370
2971197,360,460,368
2971198,359,461,368
2971199,358,459,368
2971200,357,460,369
2971201,359,459,369
2971202,359,460,368
2971203,360,460,369
2971204,359,459,370
2971205,360,456,371
2971206,361,460,372
2971207,361,459,372
2971208,362,462,371
2971209,361,460,371
2971210,362,461,371
2971211,362,462,370
2971212,360,462,372
2971213,361,462,370
2971214,360,463,370
2971215,361,461,369
2971216,360,462,369
2971217,360,460,368
2971218,360,461,368
2971219,359,460,370
2971220,360,458,370
2971221,359,460,368
2971222,361,459,370
2971223,360,460,371
2971224,360,460,371
2971225,361,462,372
2971226,360,455,370
2971227,361,459,370
2971228,362,461,372
2971229,361,463,371
2971230,361,462,371
2971231,360,462,370
2971232,361,463,371
2971233,361,462,369
2971234,361,463,370
2971235,359,461,368
2971236,360,460,370
2971237,360,460,370
2971238,361,461,369
2971239,361,459,369
2971240,360,460,368
2971241,360,459,369
2971242,360,461,371
2971243,360,458,370
2971244,360,458,370
2971245,363,457,371
2971246,362,460,371
2971247,361,462,371
2971248,362,460,371
2971249,362,462,372
2971250,362,460,372
2971251,360,462,372
2971252,360,463,370
2971253,359,462,369
2971254,360,460,369
2971255,358,461,368
2971256,359,462,370
2971257,361,460,370
2971258,359,459,369
2971259,359,462,367
2971260,359,459,369
2971261,358,459,368
2971262,357,460,367
2971263,360,461,369
2971264,361,460,370
2971265,360,462,371
2971266,362,460,370
2971267,362,459,371
2971268,361,459,372
2971269,362,460,371
2971270,361,458,372
2971271,362,459,372
2971272,361,463,370
2971273,360,461,370
2971274,361,462,370
2971275,361,462,371
2971276,360,462,368
2971277,360,461,368
2971278,359,460,369
2971279,362,462,370
2971280,360,459,369
2971281,360,461,369
2971282,361,460,369
2971283,360,460,370
2971284,362,458,371
2971285,361,459,372
2971286,360,460,371
2971287,362,462,371
2971288,362,461,372
2971289,362,462,371
2971290,361,460,370
2971291,360,462,370
2971292,362,464,371
2971293,362,462,370
2971294,361,460,370
2971295,361,461,371
2971296,360,460,369
2971297,360,456,369
2971298,360,459,368
2971299,360,459,369
2971300,359,461,370
2971301,360,460,371
2971302,360,457,370
2971303,362,459,370
2971304,363,461,369
2971305,362,460,372
2971306,360,461,371
2971307,362,460,370
2971308,363,462,371
2971309,362,462,372
2971310,362,462,371
2971311,360,463,370
2971312,361,463,371
2971313,362,462,370
2971314,362,458,370
2971315,360,461,371
2971316,360,462,369
2971317,359,461,370
2971318,360,460,370
2971319,360,461,370
2971320,361,461,369
2971321,361,460,371
2971322,359,460,369
2971323,360,459,371
2971324,361,459,369
2971325,361,458,372
2971326,362,462,371
2971327,363,461,374
2971328,363,462,373
2971329,363,462,371
2971330,361,464,369
2971331,361,463,372
2971332,363,463,371
2971333,360,463,369
2971334,361,463,370
2971335,360,463,369
2971336,360,462,369
2971337,360,461,369
2971338,360,462,369
2971339,360,460,368
2971340,360,461,370
2971341,359,460,370
2971342,359,459,370
2971343,361,462,370
2971344,362,461,370
2971345,362,461,372
2971346,363,462,372
2971347,362,461,372
2971348,361,463,372
2971349,361,463,371
2971350,362,462,373
2971351,362,463,370
2971352,360,462,371
2971353,361,463,369
2971354,362,463,370
2971355,360,460,369
2971356,360,462,371
2971357,360,463,369
2971358,358,461,370
2971359,360,461,371
2971360,360,458,370
2971361,360,459,371
2971362,360,461,370
2971363,361,461,371
2971364,361,461,373
2971365,362,461,371
2971366,362,461,371
2971367,363,462,373
2971368,362,463,373
2971369,363,462,374
2971370,362,461,373
2971371,360,463,372
2971372,362,465,372
2971373,361,462,371
2971374,361,462,371
2971375,360,462,371
2971376,360,461,370
2971377,359,463,371
2971378,359,461,369
2971379,360,461,368
2971380,360,461,370
2971381,361,459,370
2971382,361,460,371
2971383,361,459,371
2971384,361,461,372
2971385,361,462,370
2971386,359,462,372
2971387,362,462,373
2971388,361,463,371
2971389,362,463,372
2971390,360,461,371
2971391,360,463,370
2971392,360,464,369
2971393,361,461,371
2971394,361,462,371
2971395,360,461,370
2971396,360,461,370
2971397,362,462,370
2971398,360,460,368
2971399,361,457,371
2971400,361,456,370
2971401,360,460,369
2971402,362,460,370
2971403,361,457,372
2971404,360,459,371
2971405,361,460,371
2971406,361,460,371
2971407,361,461,371
2971408,360,462,371
2971409,361,463,372
2971410,362,463,369
2971411,362,464,371
2971412,362,461,369
2971413,361,462,371
2971414,360,462,370
2971415,360,462,370
2971416,360,461,371
2971417,360,460,369
2971418,361,460,371
2971419,360,461,370
2971420,360,456,370
2971421,361,462,371
2971422,360,460,370
2971423,360,462,370
2971424,360,460,371
2971425,360,460,371
2971426,361,461,371
2971427,361,463,371
2971428,362,462,371
2971429,360,459,372
2971430,361,460,371
2971431,363,461,370
2971432,361,462,371
2971433,362,462,369
2971434,360,459,369
2971435,359,459,371
2971436,361,460,371
2971437,360,462,370
2971438,360,459,370
2971439,360,459,371
2971440,361,461,371
2971441,360,459,371
2971442,362,459,371
2971443,361,460,371
2971444,362,460,372
2971445,361,461,372
2971446,363,462,372
2971447,362,461,370
2971448,361,461,371
2971449,362,463,372
2971450,361,463,371
2971451,363,461,371
2971452,361,463,372
2971453,362,461,372
2971454,361,462,370
2971455,360,460,370
2971456,360,461,370
2971457,360,461,368
2971458,360,461,370
2971459,358,460,369
2971460,360,461,371
2971461,362,461,371
2971462,360,461,370
2971463,360,459,369
2971464,361,461,370
2971465,362,460,371
2971466,361,461,371
2971467,362,462,372
2971468,361,461,371
2971469,361,463,371
2971470,361,463,371
2971471,362,460,371
2971472,363,464,372
2971473,362,461,372
2971474,359,460,371
2971475,361,460,371
2971476,360,461,369
2971477,360,461,368
2971478,360,461,369
2971479,360,461,371
2971480,360,461,368
2971481,359,459,371
2971482,362,460,372
2971483,362,457,372
2971484,362,460,372
2971485,361,458,372
2971486,363,463,372
2971487,362,464,373
2971488,362,463,372
2971489,362,464,373
2971490,362,464,371
2971491,363,463,372
2971492,361,463,372
2971493,362,463,371
2971494,362,463,370
2971495,361,461,370
2971496,361,462,369
2971497,360,461,369
2971498,359,460,369
2971499,360,461,370
2971500,361,460,371
2971501,360,459,370
2971502,360,462,371
2971503,361,460,370
2971504,361,463,371
2971505,362,459,372
2971506,363,462,373
2971507,363,462,372
2971508,363,463,372
2971509,362,463,373
2971510,363,460,371
2971511,362,463,369
2971512,363,463,372
2971516,355,462,364
2971519,356,462,364
2971519,357,458,367
2971520,358,460,368
2971521,359,461,368
2971522,359,459,370
2971523,361,458,371
2971524,361,461,371
2971525,360,460,371
2971526,362,462,372
2971527,361,462,373
2971527,364,462,373
2971528,360,464,372
2971529,362,462,372
2971530,362,464,371
2971531,362,462,372
2971532,362,460,371
2971533,361,462,372
2971534,361,462,368
2971535,361,461,371
2971536,361,461,368
2971536,361,461,370
2971537,361,458,370
2971538,361,461,368
2971539,362,459,370
2971540,360,459,370
2971541,362,459,369
2971542,361,458,370
2971543,362,464,371
2971544,362,463,370
2971544,363,462,372
2971545,363,462,372
2971546,363,462,372
2971547,363,463,372
2971548,362,461,372
2971549,363,461,372
2971550,363,461,371
2971551,363,463,370
2971552,362,465,371
2971553,362,464,370
2971553,361,460,372
2971554,361,460,372
2971555,360,460,371
2971556,361,461,370
2971557,361,460,371
2971558,361,460,370
2971559,361,458,369
2971560,361,460,369
2971561,362,459,370
2971562,361,461,371
2971563,361,458,372
2971564,361,461,371
2971565,360,461,372
2971566,362,462,373
2971567,361,461,373
2971568,362,462,373
2971569,361,463,371
2971570,363,464,374
2971571,362,465,371
2971572,362,462,371
2971573,363,462,370
2971574,361,462,371
2971575,361,460,371
2971576,361,461,371
2971577,360,460,370
2971578,360,461,369
2971579,360,460,369
2971580,361,461,370
2971581,360,460,369
2971582,361,460,371
2971583,362,459,371
2971584,361,460,372
2971585,360,461,370
2971586,362,461,372
2971587,361,462,371
2971588,362,462,372
2971589,362,462,372
2971590,362,461,371
2971591,361,462,371
2971592,361,463,371
2971593,362,461,370
2971594,362,462,371
2971595,362,462,370
2971596,360,462,370
2971597,360,461,370
2971598,360,459,369
2971599,362,462,369
2971600,361,458,369
2971601,362,458,371
2971602,362,460,371
2971603,361,459,372
2971604,361,460,372
2971605,362,460,372
2971606,361,462,371
2971607,363,463,372
2971608,361,462,371
2971609,363,461,374
2971610,361,463,372
2971611,361,463,371
2971612,361,464,371
2971613,362,464,371
2971614,362,461,370
2971615,360,461,369
2971616,361,461,368
2971617,361,460,369
2971618,360,459,370
2971619,360,458,368
2971620,361,460,370
2971621,361,458,370
2971622,359,461,370
2971623,360,461,371
2971624,361,460,371
2971625,362,460,371
2971626,363,461,373
2971627,363,463,372
2971628,362,462,372
2971629,362,461,372
2971630,363,462,370
2971631,362,462,371
2971632,363,461,372
2971633,361,462,370
2971634,361,462,370
2971635,361,461,370
2971636,360,461,369
2971637,360,459,370
2971638,361,460,370
2971639,360,460,370
2971640,361,460,369
2971641,361,460,370
2971642,362,460,370
2971643,361,459,372
2971644,361,462,372
2971645,360,459,371
2971646,361,460,371
2971647,361,461,372
2971648,362,461,371
2971649,362,459,371
2971650,361,462,370
2971651,361,463,371
2971652,362,462,371
2971653,361,464,369
2971654,360,462,369
2971655,361,461,368
2971656,360,461,367
2971657,360,460,368
2971658,361,460,367
2971659,357,460,367
2971660,358,460,370
2971661,360,458,369
2971662,360,460,371
2971663,360,461,371
2971664,361,462,372
2971665,362,460,373
2971666,362,460,372
2971667,362,459,371
2971668,363,461,372
2971669,363,464,373
2971670,361,464,370
2971671,363,462,370
2971672,360,465,371
2971673,362,463,371
2971674,361,462,370
2971675,361,464,370
2971676,359,461,370
2971677,360,463,369
2971678,360,460,371
2971679,358,462,370
2971680,360,460,370
2971681,361,461,369
2971682,359,460,369
2971683,361,460,371
2971684,361,461,371
2971685,360,461,372
2971686,362,463,373
2971687,362,462,372
2971688,361,462,373
2971689,362,465,373
2971690,364,466,373
2971691,364,463,374
2971692,363,464,371
2971693,363,465,372
2971694,362,463,371
2971695,363,465,371
2971696,362,463,371
2971697,361,463,371
2971698,361,463,370
2971699,361,461,369
2971700,360,461,370
2971701,360,461,371
2971702,361,460,371
2971703,363,461,371
2971704,362,462,372
2971705,361,460,372
2971706,362,459,371
2971707,362,463,373
2971708,364,463,373
2971709,364,466,374
2971710,363,463,373
2971711,363,462,371
2971712,363,463,373
2971713,361,464,372
2971714,361,465,369
1742214213043,NEW REP,,
2971715,361,462,370
2971716,362,461,370
2971717,362,463,368
2971718,361,461,370
2971719,361,460,370
2971720,362,459,371
2971721,362,461,369
2971722,361,462,371
2971723,361,461,371
2971724,363,461,373
2971725,362,460,371
2971726,362,458,372
2971727,362,461,372
2971728,363,461,373
2971729,362,461,372
2971730,363,463,372
2971731,361,460,370
2971732,362,459,370
2971733,359,463,370
2971734,361,462,370
2971735,361,463,370
2971736,362,462,369
2971737,360,461,371
2971738,360,461,369
2971739,359,462,368
2971740,359,460,371
2971741,361,461,369
2971742,360,460,371
2971743,361,460,372
2971744,362,462,369
2971745,360,463,372
2971746,364,462,371
2971747,363,462,372
2971748,364,464,372
2971749,364,464,373
2971750,362,465,371
2971751,362,466,370
2971752,362,464,372
2971753,361,465,372
2971754,361,465,371
2971755,363,465,373
2971756,364,466,373
2971757,363,464,372
2971758,364,463,373
2971759,364,465,373
2971760,365,465,374
2971761,363,464,372
2971762,364,463,372
2971763,363,460,373
2971764,363,462,371
2971765,363,462,372
2971766,363,462,372
2971767,363,461,373
2971768,364,462,373
2971769,364,464,372
2971770,363,462,372
2971771,362,464,372
2971772,364,465,372
2971773,363,466,372
2971774,364,466,371
2971775,364,467,373
2971776,364,472,371
2971777,363,466,374
2971778,363,466,373
2971779,363,465,374
2971780,364,466,374
2971781,364,464,374
2971782,364,462,373
2971783,365,464,374
2971784,363,464,374
2971785,364,464,374
2971786,364,462,374
2971787,362,462,373
2971788,363,462,373
2971789,362,462,372
2971790,362,460,371
2971791,361,461,371
2971792,363,461,371
2971793,362,462,370
2971794,361,458,371
2971795,359,461,368
2971796,361,460,369
2971797,360,460,368
2971798,360,460,368
2971799,359,460,368
2971800,359,457,368
2971801,360,458,368
2971802,360,459,370
2971803,361,458,370
2971804,360,461,371
2971805,361,459,371
2971806,361,460,372
2971807,362,462,371
2971808,362,461,372
2971809,362,464,371
2971810,363,464,371
2971811,362,460,372
2971812,362,464,371
2971813,362,462,371
2971814,361,461,371
2971815,361,462,370
2971816,361,461,370
2971817,360,459,371
2971818,359,459,369
2971819,360,461,368
2971820,360,460,371
2971821,361,457,371
2971822,361,460,370
2971823,361,461,371
2971824,361,459,372
2971825,360,461,372
2971826,361,462,372
2971827,361,463,372
2971828,362,460,372
2971829,362,463,371
2971830,361,462,372
2971831,363,461,370
2971832,361,463,370
2971833,362,463,371
2971834,361,463,370
2971835,361,465,371
2971836,361,465,372
2971837,363,466,372
2971838,362,466,372
2971839,363,464,374
2971840,362,463,372
2971841,364,461,373
2971842,363,459,372
2971843,363,462,374
2971844,363,462,372
2971845,363,460,371
2971846,364,463,372
2971847,363,464,373
2971848,365,464,374
2971849,365,466,374
2971850,366,468,375
2971851,366,468,375
2971852,366,471,375
2971853,365,472,375
2971854,366,470,375
2971855,364,468,374
2971856,364,470,374
2971857,365,468,375
2971858,367,472,376
2971859,366,470,377
2971860,368,474,379
2971861,369,474,377
2971862,369,476,380
2971863,370,474,379
2971864,371,475,381
2971865,369,474,381
2971866,370,471,381
2971867,368,471,379
2971868,368,471,379
2971869,368,465,377
2971870,368,463,376
2971871,365,465,374
2971872,365,467,373
2971873,363,466,374
2971874,364,466,372
2971875,362,461,372
2971876,362,465,371
2971877,361,464,371
2971878,363,460,371
2971879,362,459,372
2971880,360,461,370
2971881,361,459,371
2971882,361,462,370
2971883,362,462,371
2971884,362,464,372
2971885,364,464,370
2971886,363,463,373
2971887,364,465,375
2971888,364,464,375
2971889,364,465,373
2971890,361,465,372
2971891,362,465,372
2971892,363,464,371
2971893,362,462,371
2971894,359,462,369
2971895,360,462,370
2971896,360,460,370
2971897,359,459,369
2971898,360,459,369
2971899,360,460,369
2971900,359,462,370
2971901,359,460,371
2971902,361,459,371
2971903,360,462,372
2971904,361,456,370
2971905,361,458,370
2971906,362,461,370
2971907,361,462,371
2971908,362,463,371
2971909,362,463,373
2971910,361,467,373
2971911,363,469,374
2971912,364,468,374
2971913,364,471,374
2971914,363,471,376
2971915,367,467,374
2971916,365,471,375
2971917,365,469,376
2971918,367,469,376
2971919,364,468,376
2971920,366,468,376
2971921,365,467,374
2971922,366,468,375
2971923,365,465,376
2971924,364,464,374
2971925,365,464,375
2971926,365,464,374
2971927,365,460,373
2971928,364,464,374
2971929,364,464,373
2971930,363,463,373
2971931,362,460,373
2971932,362,466,372
2971933,362,459,370
2971934,363,462,371
2971935,361,460,369
2971936,360,461,369
2971937,360,460,369
2971938,357,459,369
2971939,358,460,369
2971940,359,459,369
2971941,359,461,369
2971942,361,462,370
2971943,361,463,372
2971944,361,464,374
2971945,364,467,375
2971946,364,472,376
2971947,367,473,378
2971948,369,477,379
2971949,371,479,382
2971950,373,481,381
2971951,374,479,383
2971952,374,483,384
2971953,375,482,384
2971954,373,481,383
2971955,373,475,383
2971956,371,476,382
2971957,371,474,380
2971958,368,472,379
2971959,371,470,379
2971960,369,469,378
2971961,367,470,378
2971962,366,469,377
2971963,368,471,378
2971964,368,467,379
2971965,368,472,379
2971966,368,471,377
2971967,369,472,380
2971968,368,473,378
2971969,369,472,378
2971970,368,472,379
2971971,369,471,378
2971972,369,470,378
2971973,367,471,376
2971974,366,473,377
2971975,368,472,377
2971976,367,476,377
2971977,369,475,378
2971978,370,470,379
2971979,371,471,379
2971980,369,472,379
2971981,369,470,379
2971982,369,469,379
2971983,367,470,375
2971984,367,467,377
2971985,366,466,375
2971986,365,465,376
2971987,365,463,375
2971988,364,463,374
2971989,364,460,374
2971990,363,461,372
2971991,362,459,370
2971992,361,460,370
2971993,360,462,370
2971994,361,464,369
2971995,361,462,371
2971996,363,464,371
2971997,362,463,371
2971998,361,461,370
2971999,363,466,371
2972000,363,469,372
2972001,364,470,375
2972002,366,473,377
2972003,368,471,377
2972004,369,472,378
2972005,369,472,378
2972006,370,467,379
2972007,367,465,376
2972008,365,462,374
2972009,364,462,373
2972010,363,462,373
2972011,363,462,371
2972012,362,463,371
2972013,361,462,371
2972014,359,463,371
2972015,361,461,369
2972016,362,462,368
2972017,360,462,369
2972018,360,461,370
2972019,360,462,370
2972020,361,462,369
2972021,362,461,372
2972022,361,462,373
2972023,363,463,372
2972024,361,462,373
2972025,364,463,374
2972026,364,465,374
2972027,364,467,374
2972028,366,465,374
2972029,364,466,375
2972030,365,469,374
2972031,365,469,376
2972032,365,470,374
2972033,365,469,374
2972034,365,467,374
2972035,363,467,373
2972036,362,464,372
2972037,364,464,373
2972038,364,463,372
2972039,362,464,371
2972040,364,465,373
2972041,365,464,374
2972042,365,469,375
2972043,366,469,376
2972044,367,470,376
2972045,367,472,376
2972046,368,468,378
2972047,367,472,378
2972048,367,472,379
2972049,367,471,379
2972050,368,467,377
2972051,367,468,377
2972052,366,467,375
2972053,365,468,374
2972054,365,467,373
2972055,365,467,375
2972056,364,467,375
2972057,363,465,374
2972058,365,460,373
2972059,362,465,374
2972060,363,464,374
2972061,364,467,376
2972062,365,470,375
2972063,366,468,376
2972064,367,466,378
2972065,366,468,377
2972066,367,469,376
2972067,367,470,377
2972068,367,470,375
2972069,365,469,376
2972070,368,472,376
2972071,368,474,378
2972072,367,479,378
2972073,369,478,379
2972074,368,475,379
2972075,369,472,380
2972076,368,469,377
2972077,365,466,376
2972078,363,459,372
2972079,363,457,371
2972080,361,459,370
2972081,361,456,371
2972082,362,461,371
2972083,361,463,370
2972084,362,463,371
2972085,363,461,372
2972086,361,463,372
2972087,361,463,372
2972088,361,460,371
2972089,362,460,369
2972090,360,457,369
2972091,359,458,368
2972092,357,457,367
2972093,358,460,368
2972094,359,461,368
2972095,360,463,370
2972096,359,465,370
2972097,361,467,371
2972098,364,467,372
2972099,365,469,375
2972100,367,472,375
2972101,369,473,378
2972102,369,473,379
2972103,368,474,379
2972104,370,473,381
2972105,369,473,379
2972106,368,467,380
2972107,367,468,377
2972108,365,464,377
2972109,366,466,375
2972110,365,465,374
2972111,363,466,374
2972112,364,465,373
2972113,363,467,374
2972114,364,469,373
2972115,363,468,374
2972116,363,468,373
2972117,364,466,372
2972118,363,461,373
2972119,363,463,373
2972120,362,461,373
2972121,364,461,372
2972122,363,464,373
2972123,364,466,374
2972124,364,463,374
2972125,364,465,374
2972126,365,467,373
2972127,366,470,374
2972128,366,470,376
2972129,366,470,377
2972130,366,470,377
2972131,367,468,376
2972132,366,470,376
2972133,366,469,377
2972134,363,470,375
2972135,365,470,375
2972136,367,470,376
2972137,368,474,376
2972138,369,477,378
2972139,370,478,380
2972140,370,477,381
2972141,369,472,381
2972142,368,470,381
2972143,368,466,378
2972144,368,463,377
2972145,363,459,373
2972146,363,458,374
2972147,362,455,371
2972148,359,454,369
2972149,359,453,368
2972150,358,457,365
2972151,356,456,366
2972152,357,456,365
2972153,356,458,366
2972154,358,461,367
2972155,360,461,370
2972156,360,465,369
2972157,361,465,370
2972158,362,466,371
2972159,361,465,371
2972160,363,465,373
2972161,364,466,374
2972162,365,467,374
2972163,365,467,375
2972164,365,465,376
2972165,365,466,376
2972166,364,465,374
2972167,363,462,373
2972168,363,463,372
2972169,362,460,372
2972170,361,462,372
2972171,363,466,371
2972172,362,463,374
2972173,364,466,373
2972174,364,466,372
2972175,361,462,371
2972176,362,457,372
2972177,359,457,368
2972178,359,454,367
2972179,358,456,368
2972180,359,457,367
2972181,360,456,369
2972182,359,460,368
2972183,360,460,370
2972184,360,461,370
2972185,361,457,371
2972186,361,461,371
2972187,360,460,370
2972188,359,458,370
2972189,361,458,371
2972190,359,460,369
2972191,360,460,368
2972192,360,460,369
2972193,360,462,370
2972194,359,460,368
2972195,357,458,367
2972196,357,456,366
2972197,357,457,366
2972198,357,455,366
2972199,358,459,367
2972200,359,460,367
2972201,360,462,370
2972202,362,463,371
2972203,362,463,372
2972204,363,464,373
2972205,364,465,374
2972206,363,466,373
2972207,365,466,375
2972208,365,463,376
2972209,364,464,374
2972210,364,467,374
2972211,368,472,375
2972212,369,473,376
2972213,368,478,378
2972214,371,477,380
2972215,370,480,381
2972216,372,478,381
2972217,371,472,380
2972218,368,469,378
2972219,367,465,376
2972220,366,459,376
2972221,364,461,375
2972222,363,464,373
2972223,365,464,374
2972224,366,468,375
2972225,367,468,376
2972226,366,468,376
2972227,366,469,378
2972228,365,466,376
2972229,364,464,374
2972230,362,461,372
2972231,362,460,370
2972232,361,456,370
2972233,360,459,368
2972234,361,459,366
2972235,359,461,368
2972236,359,458,369
2972237,359,461,369
2972238,361,464,370
2972239,362,464,371
2972240,363,466,373
2972241,364,463,374
2972242,362,464,374
2972243,362,461,373
2972244,362,457,371
2972245,361,454,370
2972246,358,453,366
2972247,360,451,366
2972248,357,451,367
2972249,358,454,367
2972250,356,455,365
2972251,356,455,365
2972252,355,453,365
2972253,354,455,364
2972254,353,453,364
2972255,352,453,363
2972256,352,451,362
2972257,355,451,363
2972258,354,450,362
2972259,353,452,362
2972260,355,454,363
2972261,356,460,366
2972262,360,466,369
2972263,362,469,372
2972264,366,472,376
2972265,366,473,377
2972266,367,469,377
2972267,366,463,376
2972268,363,460,374
2972269,361,456,371
2972270,359,458,369
2972271,357,458,367
2972272,359,457,368
2972273,359,459,367
2972274,359,455,365
2972275,357,457,368
2972276,358,454,366
2972277,358,456,367
2972278,356,456,366
2972279,357,456,365
2972280,358,455,366
2972281,358,456,367
2972282,358,456,367
2972283,358,454,368
2972284,358,455,366
2972285,359,457,368
2972286,358,455,368
2972287,359,457,370
2972288,359,460,369
2972289,359,459,370
2972290,360,461,370
2972291,358,461,370
2972292,360,462,370
2972293,361,461,371
2972294,361,463,371
2972295,362,463,370
2972296,361,464,371
2972297,361,463,371
2972298,361,463,371
2972299,362,460,371
2972300,359,459,370
2972301,360,457,370
2972302,359,458,369
2972303,359,459,369
2972304,360,460,371
2972305,360,460,372
2972306,362,457,372
2972307,362,460,372
2972308,361,461,370
2972309,361,462,371
2972310,361,463,372
2972311,362,466,373
2972312,366,470,374
2972313,364,474,375
2972314,367,475,375
2972315,368,473,378
2972316,366,472,375
2972317,365,465,374
2972318,363,462,374
2972319,363,460,375
2972320,362,463,372
2972321,362,466,373
2972322,365,468,375
2972323,367,468,376
2972324,367,471,378
2972325,367,469,379
2972326,367,467,376
2972327,366,460,375
2972328,363,461,374
2972329,361,460,372
2972330,361,458,371
2972331,359,457,370
2972332,360,461,370
2972333,360,457,369
2972334,360,459,369
2972335,358,459,367
2972336,358,457,367
2972337,357,456,367
2972338,356,455,365
2972339,356,452,363
2972340,355,450,365
2972341,354,450,364
2972342,355,451,362
2972343,354,452,364
2972344,356,451,364
2972345,355,453,365
2972346,356,455,367
2972347,358,455,367
2972348,358,458,367
2972349,359,460,370
2972350,359,462,369
2972351,360,463,369
2972352,363,466,371
2972353,362,466,372
2972354,362,468,372
2972355,361,460,372
2972356,361,459,370
2972357,358,458,369
2972358,360,457,369
2972359,359,456,368
2972360,360,457,369
2972361,360,458,370
2972362,360,459,368
2972363,360,460,369
2972364,362,458,370
2972365,360,459,370
2972366,360,460,371
2972367,361,462,369
2972368,362,460,371
2972369,363,462,371
2972370,362,463,371
2972371,362,464,372
2972372,362,467,373
2972373,364,471,374
2972374,366,471,375
2972375,368,476,376
2972376,369,479,380
2972377,371,473,379
2972378,370,473,379
2972379,370,470,380
2972380,371,471,380
2972381,370,472,380
2972382,368,472,379
2972383,370,472,380
2972384,370,471,380
2972385,369,469,380
2972386,370,471,380
2972387,368,471,378
2972388,368,469,377
2972389,366,466,376
2972390,365,462,374
2972391,365,463,373
2972392,364,461,372
2972393,362,460,370
2972394,358,456,368
2972395,359,456,368
2972396,358,459,367
2972397,360,461,368
2972398,361,463,370
2972399,362,467,372
2972400,364,467,373
2972401,364,464,373
2972402,363,464,374
2972403,363,458,373
2972404,362,460,372
2972405,361,458,370
2972406,362,455,371
2972407,361,459,372
2972408,361,461,371
2972409,361,460,371
2972410,361,462,372
2972411,358,462,370
2972412,361,461,369
2972413,358,460,369
2972414,360,462,369
2972415,360,464,369
2972416,359,463,370
2972417,360,465,370
2972418,362,463,371
2972419,360,464,369
2972420,360,460,372
2972421,362,458,371
2972422,361,460,372
2972423,363,464,372
2972424,366,469,375
2972425,366,469,375
2972426,367,476,378
2972427,369,475,380
2972428,369,473,380
2972429,367,470,379
2972430,367,465,377
2972431,365,461,373
2972432,362,456,371
2972433,361,457,371
2972434,359,457,368
2972435,359,453,366
2972436,358,451,365
2972437,357,452,364
2972438,355,453,363
2972439,354,453,364
2972440,357,453,366
2972441,358,458,368
2972442,360,460,369
2972443,361,463,372
2972444,361,466,373
2972445,364,466,374
2972446,365,466,376
2972447,366,467,376
2972448,365,470,377
2972449,367,469,378
2972450,367,468,377
2972451,367,470,377
2972452,366,469,376
2972453,365,466,374
2972454,363,464,373
2972455,363,465,371
2972456,363,462,372
2972457,362,461,371
2972458,361,462,372
2972459,362,463,372
2972460,363,466,373
2972461,364,468,374
2972462,365,468,376
2972463,365,470,376
2972464,368,474,379
2972465,371,476,381
2972466,373,479,383
2972467,372,481,383
2972468,373,478,382
2972469,374,474,381
2972470,371,470,381
2972471,368,465,376
2972472,365,459,375
2972473,362,458,371
2972474,360,453,367
2972475,356,451,365
2972476,356,447,364
2972477,355,448,363
2972478,351,450,362
2972479,353,452,362
2972480,355,453,364
2972481,355,451,364
2972482,357,454,365
2972483,356,454,367
2972484,356,453,367
2972485,357,455,368
2972486,357,457,367
2972487,357,456,367
2972488,357,459,368
2972489,360,462,370
2972490,364,474,375
2972491,367,482,379
2972492,369,485,383
2972493,374,488,384
2972494,374,485,384
2972495,373,477,383
2972496,371,468,381
2972497,367,462,375
2972498,363,456,370
2972499,361,456,370
2972500,360,456,368
2972501,361,455,368
2972502,360,452,368
2972503,358,454,368
2972504,355,450,366
2972505,355,452,366
2972506,354,447,364
2972507,355,450,365
2972508,356,451,365
2972509,355,454,364
2972510,356,452,365
2972511,355,457,367
2972512,356,455,365
2972513,357,457,366
2972514,357,459,365
2972515,358,461,367
2972516,360,463,369
2972517,361,469,371
2972518,363,473,372
2972519,366,474,376
2972520,367,474,377
2972521,367,467,378
2972522,366,462,376
2972523,364,459,373
2972524,362,458,371
2972525,361,456,370
2972526,359,457,369
2972527,360,459,370
2972528,363,464,372
2972529,363,466,372
2972530,364,465,373
2972531,366,467,373
2972532,363,463,372
2972533,361,458,372
2972534,360,457,369
2972535,359,455,368
2972536,357,449,365
2972537,357,455,366
2972538,358,461,367
2972539,360,461,369
2972540,362,466,372
2972541,361,467,372
2972542,364,467,375
2972543,366,468,375
2972544,365,464,375
2972545,364,463,373
2972546,363,463,373
2972547,365,461,373
2972548,364,461,373
2972549,362,461,372
2972550,359,453,368
2972551,359,454,367
2972552,357,452,364
2972553,356,448,364
2972554,355,451,363
2972555,353,451,363
2972556,352,447,362
2972557,353,450,362
2972558,353,451,362
2972559,355,456,364
2972560,356,460,366
2972561,359,463,369
2972562,361,465,371
2972563,362,467,372
2972564,364,469,374
2972565,366,467,377
2972566,367,468,376
2972567,365,463,375
2972568,364,461,375
2972569,363,462,374
2972570,362,460,372
2972571,360,458,370
2972572,360,458,367
2972573,359,456,367
2972574,355,451,364
2972575,355,451,362
2972576,353,448,361
2972577,353,448,361
2972578,352,445,361
2972579,351,448,360
2972580,352,451,361
2972581,354,456,363
2972582,358,460,367
2972583,359,461,370
2972584,359,465,370
2972585,362,466,371
2972586,364,463,373
2972587,364,461,374
2972588,363,460,372
2972589,361,455,370
2972590,360,456,368
2972591,359,458,369
2972592,359,459,370
2972593,358,463,370
2972594,361,467,370
2972595,361,469,373
2972596,363,471,374
2972597,365,471,373
2972598,366,467,375
2972599,362,462,372
2972600,363,456,371
2972601,361,457,370
2972602,359,452,368
2972603,358,451,368
2972604,357,451,367
2972605,357,456,365
2972606,359,457,368
2972607,360,462,370
2972608,363,463,372
2972609,362,469,373
2972610,365,465,374
2972611,362,464,372
2972612,362,460,371
2972613,359,454,368
2972614,356,451,364
2972615,354,447,362
2972616,353,446,361
2972617,351,444,360
2972618,351,446,359
2972619,350,442,359
2972620,350,442,359
2972621,350,444,358
2972622,349,443,359
2972623,351,446,359
2972624,351,448,361
2972625,354,455,363
2972626,355,460,366
2972627,358,461,368
2972628,360,465,369
2972629,360,464,371
2972630,361,463,371
2972631,361,461,371
2972632,360,457,368
2972633,361,458,368
2972634,359,460,367
2972635,359,461,369
2972636,359,462,370
2972637,362,463,369
2972638,360,462,369
2972639,361,461,370
2972640,357,455,368
2972641,357,448,366
2972642,355,446,363
2972643,353,442,361
2972644,350,440,361
2972645,350,443,359
2972646,351,447,360
2972647,353,451,362
2972648,355,454,365
2972649,356,458,365
2972650,356,459,367
2972651,357,457,364
2972652,357,452,366
2972653,354,447,362
2972654,351,444,360
2972655,347,437,358
2972656,348,437,354
2972657,346,437,355
2972658,345,438,355
2972659,347,442,353
2972660,348,444,357
2972661,351,449,359
2972662,351,452,363
2972663,353,457,366
2972664,357,460,366
2972665,359,457,368
2972666,359,458,368
2972667,358,457,369
2972668,357,453,367
2972669,358,451,366
2972670,353,453,364
2972671,355,454,365
2972672,356,455,365
2972673,356,454,364
2972674,355,454,365
2972675,356,453,364
2972676,354,448,362
2972677,353,440,362
2972678,349,442,360
2972679,348,441,358
2972680,348,439,355
2972681,348,437,353
2972682,345,438,354
2972683,345,437,355
2972684,345,436,354
2972685,344,435,354
2972686,345,436,354
2972687,344,438,354
2972688,344,440,354
2972689,346,441,356
2972690,347,438,355
2972691,347,442,355
2972692,349,440,354
2972693,347,444,354
2972694,348,446,356
2972695,348,443,356
2972696,349,446,358
2972697,348,447,358
2972698,350,446,359
2972699,349,447,359
2972700,351,443,358
2972701,349,442,360
2972702,348,441,357
2972703,347,441,356
2972704,347,441,357
2972705,347,442,357
2972706,349,443,358
2972707,350,442,358
2972708,350,447,359
2972709,349,448,359
2972710,349,449,360
2972711,350,451,360
2972712,352,450,360
2972713,352,451,361
2972714,352,450,361
2972715,350,449,360
2972716,351,448,361
2972717,352,448,362
2972718,351,448,360
2972719,350,448,361
2972720,351,446,362
2972721,350,448,360
2972722,353,448,364
2972723,352,451,362
2972724,353,451,363
2972725,354,450,364
2972726,355,455,364
2972727,355,448,364
2972728,352,449,363
2972729,351,446,360
2972730,351,445,361
2972731,350,440,359
2972732,351,443,359
2972733,351,444,359
2972734,350,445,357
2972735,352,447,358
2972736,350,447,359
2972737,351,450,360
2972738,352,452,359
2972739,352,454,362
2972740,353,453,363
2972741,354,453,364
2972742,355,452,364
2972743,354,448,363
2972744,354,449,364
2972745,353,448,362
2972746,354,446,363
2972747,353,449,363
2972748,354,449,362
2972749,352,447,361
2972750,353,450,362
2972751,353,451,362
2972752,355,455,363
2972753,355,456,364
2972754,357,456,365
2972755,357,456,366
2972756,358,457,366
2972757,356,456,366
2972758,356,456,367
2972759,357,452,366
2972760,357,455,367
2972761,356,455,366
2972762,358,454,366
2972763,356,452,366
2972764,356,449,366
2972765,355,447,363
2972766,354,446,364
2972767,353,448,361
2972768,352,447,362
2972769,353,448,361
2972770,351,450,361
2972771,352,452,363
2972772,353,451,361
2972773,352,451,361
2972774,353,448,360
2972775,352,444,358
2972776,352,445,360
2972777,349,445,357
2972778,351,444,359
2972779,349,446,359
2972780,349,448,360
2972781,352,448,360
2972782,352,448,360
2972783,353,449,362
2972784,353,452,363
2972785,355,446,364
2972786,355,452,363
2972787,355,451,364
2972788,354,451,364
2972789,355,452,364
2972790,355,451,365
2972791,356,452,364
2972792,355,455,364
2972793,354,457,364
2972794,356,455,365
2972795,358,459,367
2972796,357,460,367
2972797,359,459,368
2972798,359,458,367
2972799,357,456,368
2972800,356,454,368
2972801,356,451,366
2972802,357,452,365
2972803,356,450,365
2972804,357,450,366
2972805,356,451,364
2972806,355,449,363
2972807,354,448,362
2972808,353,448,363
2972809,352,448,361
2972810,353,450,362
2972811,353,452,362
2972812,353,452,361
2972813,353,453,362
2972814,352,452,361
2972815,352,452,360
2972816,353,448,362
2972817,351,448,360
2972818,351,448,360
2972819,351,446,360
2972820,352,445,360
2972821,352,448,361
2972822,352,448,361
2972823,354,449,362
2972824,353,450,361
2972825,352,448,363
2972826,351,448,360
2972827,352,448,361
2972828,351,447,361
2972829,351,446,360
2972830,351,449,360
2972831,351,451,362
2972832,352,450,360
2972833,351,451,361
2972834,352,452,359
2972835,353,452,362
2972836,353,449,362
2972837,352,453,362
2972838,353,455,362
2972839,355,457,365
2972840,357,460,367
2972841,360,461,368
2972842,359,462,371
2972843,361,460,370
2972844,361,458,370
2972845,359,456,367
2972846,360,454,367
2972847,359,452,368
2972848,358,454,366
2972849,356,455,366
2972850,356,456,366
2972851,357,453,366
2972852,355,453,365
2972853,354,451,364
2972854,354,449,362
2972855,352,448,361
2972856,351,445,358
2972857,351,446,359
2972858,352,447,360
2972859,351,446,360
2972860,351,447,361
2972861,351,448,360
2972862,352,450,360
2972863,354,449,364
2972864,355,454,364
2972865,356,451,366
2972866,355,453,365
2972867,355,453,364
2972868,355,449,365
2972869,352,448,362
2972870,352,447,360
2972871,353,445,361
2972872,352,448,361
2972873,351,451,361
2972874,352,451,360
2972875,351,450,360
2972876,351,448,361
2972877,351,446,360
2972878,350,445,360
2972879,351,444,360
2972880,349,442,360
2972881,349,444,357
2972882,350,443,357
2972883,350,443,359
2972884,350,443,358
2972885,349,445,361
2972886,352,447,359
2972887,352,449,359
2972888,352,453,361
2972889,353,452,362
2972890,353,455,363
2972891,355,451,364
2972892,354,457,364
2972893,356,455,364
2972894,355,454,364
2972895,354,455,364
2972896,354,454,363
2972897,355,453,363
2972898,353,451,363
2972899,354,450,362
2972900,352,446,362
2972901,351,447,361
2972902,353,446,361
2972903,352,443,361
2972904,350,441,360
2972905,351,442,360
2972906,351,442,360
2972907,350,441,359
2972908,350,443,358
2972909,350,448,360
2972910,349,448,360
2972911,352,449,360
2972912,352,450,362
2972913,353,453,361
2972914,353,452,362
2972915,353,445,361
2972916,352,450,361
2972917,351,445,360
2972918,352,446,359
2972919,350,446,359
2972920,351,446,361
2972921,351,446,359
2972922,350,445,360
2972923,351,441,359
2972924,350,443,361
2972925,351,443,360
2972926,351,444,361
2972927,353,449,361
2972928,353,452,363
2972929,354,451,363
2972930,354,452,363
2972931,353,451,363
2972932,352,449,362
2972933,350,445,359
2972934,348,442,358
2972935,348,440,356
2972936,347,440,354
2972937,346,439,356
2972938,345,437,353
2972939,345,438,352
2972940,344,434,354
2972941,345,438,353
2972942,345,437,355
2972943,345,438,354
2972944,345,439,355
2972945,346,441,356
2972946,347,438,357
2972947,347,442,358
2972948,348,443,358
2972949,348,443,357
2972950,348,445,358
2972951,347,445,358
2972952,347,443,356
2972953,347,444,359
2972954,347,444,357
2972955,346,440,357
2972956,347,441,356
2972957,346,442,357
2972958,347,442,355
2972959,348,442,356
2972960,346,441,354
2972961,347,440,355
2972962,347,441,356
2972963,348,443,357
2972964,348,446,359
2972965,349,446,360
2972966,352,450,360
2972967,354,452,363
2972968,355,456,363
2972969,356,456,364
2972970,355,455,365
2972971,356,453,364
2972972,354,449,363
2972973,353,449,363
2972974,354,453,362
2972975,354,458,362
2972976,358,459,365
2972977,358,463,367
2972978,358,464,369
2972979,361,463,371
2972980,360,458,370
2972981,359,452,369
2972982,358,452,367
2972983,357,448,367
2972984,356,446,364
2972985,354,445,363
2972986,354,447,363
2972987,352,447,363
2972988,352,448,363
2972989,352,449,360
2972990,353,451,363
2972991,353,454,363
2972992,354,454,364
2972993,354,454,365
2972994,353,456,363
2972995,355,454,363
2972996,353,451,362
2972997,353,448,361
2972998,353,446,360
2972999,352,447,361
2973000,351,444,360
2973001,351,444,359
2973002,351,445,359
2973003,350,445,360
2973004,352,447,361
2973005,351,449,360
2973006,352,448,361
2973007,353,445,361
2973008,353,448,361
2973009,352,449,361
2973010,350,450,361
2973011,352,451,360
2973012,353,453,362
2973013,354,454,364
2973014,354,454,364
2973015,355,451,363
2973016,354,453,363
2973017,353,450,362
2973018,353,447,361
2973019,352,445,361
2973020,350,446,362
2973021,353,448,362
2973022,352,449,362
2973023,355,452,363
2973024,355,451,364
2973025,355,456,365
2973026,356,455,366
2973027,358,455,367
2973028,357,455,367
2973029,356,456,365
2973030,357,455,366
2973031,356,455,364
2973032,356,450,365
2973033,355,449,362
2973034,353,452,361
2973035,355,450,362
2973036,353,449,361
2973037,353,451,363
2973038,354,452,363
2973039,354,452,364
2973040,355,451,363
2973041,353,449,364
2973042,353,449,365
2973043,353,446,363
2973044,353,446,364
2973045,354,449,364
2973046,354,453,365
2973047,357,454,365
2973048,357,456,367
2973049,357,461,367
2973050,358,462,369
2973051,357,460,368
2973052,360,461,368
2973053,358,459,368
2973054,359,460,367
2973055,360,458,368
2973056,359,456,369
2973057,358,458,366
2973058,359,458,366
2973059,357,454,368
2973060,357,452,367
2973061,357,452,366
2973062,356,451,366
2973063,355,449,363
2973064,355,451,364
2973065,353,451,363
2973066,354,449,364
2973067,353,447,363
2973068,353,449,363
2973069,353,447,362
2973070,353,450,363
2973071,351,450,362
2973072,352,452,362
2973073,352,452,362
2973074,354,454,361
2973075,355,453,362
2973076,354,452,364
2973077,352,453,363
2973078,355,454,363
2973079,355,454,362
2973080,354,452,363
2973081,355,451,364
2973082,355,446,363
2973083,354,446,363
2973084,353,443,362
2973085,353,445,359
2973086,352,443,361
2973087,351,443,360
2973088,351,445,359
2973089,351,445,360
2973090,352,448,359
2973091,352,451,360
2973092,352,447,360
2973093,352,451,360
2973094,350,449,360
2973095,352,449,360
2973096,351,450,359
2973097,352,449,361
2973098,350,450,359
2973099,352,450,362
2973100,351,450,364
2973101,354,450,362
2973102,354,447,364
2973103,357,451,364
2973104,356,454,364
2973105,356,454,366
2973106,355,454,366
2973107,356,456,366
2973108,357,456,366
2973109,357,458,367
2973110,358,457,368
2973111,359,462,368
2973112,361,463,371
2973113,363,463,371
2973114,362,464,371
2973115,361,459,371
2973116,361,459,369
2973117,360,459,369
2973118,358,457,369
2973119,359,457,368
2973120,357,457,368
2973121,358,458,369
2973122,359,457,370
2973123,359,457,368
2973124,358,453,367
2973125,358,451,366
2973126,355,452,366
2973127,355,450,365
2973128,354,448,364
2973129,354,451,363
2973130,354,450,364
2973131,355,454,364
2973132,355,453,364
2973133,356,456,365
2973134,355,456,365
2973135,354,453,363
2973136,354,452,364
2973137,354,450,364
2973138,355,450,362
2973139,353,445,362
2973140,354,448,363
2973141,351,449,363
2973142,352,452,364
2973143,354,452,363
2973144,355,453,365
2973145,357,456,366
2973146,357,455,369
2973147,359,461,368
2973148,360,461,371
2973149,360,461,370
2973150,362,461,371
2973151,362,462,369
2973152,361,462,367
2973153,360,456,367
2973154,358,456,365
2973155,358,455,365
2973156,356,456,366
2973157,356,457,366
2973158,358,457,365
2973159,358,458,367
2973160,359,456,367
2973161,358,455,367
2973162,357,454,365
2973163,357,453,367
2973164,357,451,367
2973165,357,453,366
2973166,357,453,367
2973167,355,452,366
2973168,356,454,365
2973169,357,455,366
2973170,356,455,365
2973171,356,455,365
2973172,357,457,365
2973173,358,456,366
2973174,356,459,366
2973175,356,454,364
2973176,355,455,364
2973177,355,454,363
2973178,355,454,364
2973179,355,449,364
2973180,355,452,365
2973181,354,447,363
2973182,355,451,366
2973183,355,452,363
2973184,355,453,365
2973185,356,453,365
2973186,355,454,365
2973187,356,455,366
2973188,356,455,365
2973189,357,457,364
2973190,358,456,366
2973191,356,457,365
2973192,357,457,365
2973193,357,456,365
2973194,358,454,365
2973195,357,456,365
2973196,356,454,365
2973197,354,455,365
2973198,356,456,365
2973199,358,458,367
2973200,359,456,368
2973201,360,460,368
2973202,360,459,369
2973203,360,459,370
2973204,360,458,369
2973205,359,457,369
2973206,358,456,369
2973207,360,455,368
2973208,358,455,368
2973209,358,457,368
2973210,358,456,367
2973211,358,457,366
2973212,357,460,367
2973213,358,457,365
2973214,357,457,368
2973215,357,455,366
2973216,357,454,365
2973217,355,452,365
2973218,355,450,365
2973219,356,454,365
2973220,355,451,364
2973221,356,451,365
2973222,355,453,365
2973223,356,452,365
2973224,355,454,364
2973225,357,455,367
2973226,358,457,367
2973227,360,461,368
2973228,359,460,369
2973229,359,462,369
2973230,360,461,370
2973231,361,462,370
2973232,361,463,370
2973233,361,460,370
2973234,358,458,368
2973235,360,456,367
2973236,356,457,367
2973237,356,455,365
2973238,357,454,366
2973239,355,453,366
2973240,355,452,364
2973241,356,454,366
2973242,357,453,367
2973243,358,454,367
2973244,358,455,367
2973245,360,454,368
2973246,359,456,368
2973247,359,456,368
2973248,359,458,368
2973249,358,458,367
2973250,358,458,368
2973251,360,458,369
2973252,358,460,367
2973253,358,458,367
2973254,359,458,367
2973255,358,460,368
2973256,359,460,367
2973257,360,460,368
2973258,360,461,370
2973259,358,461,369
2973260,360,459,369
2973261,359,457,369
2973262,359,455,368
2973263,359,455,369
2973264,357,453,368
2973265,358,455,367
2973266,359,458,368
2973267,359,463,370
2973268,361,460,371
2973269,359,466,372
2973270,362,461,372
2973271,362,462,371
2973272,362,459,371
2973273,362,463,369
2973274,360,460,369
2973275,360,459,369
2973276,359,458,367
2973277,358,454,367
2973278,358,458,366
2973279,359,455,368
2973280,359,455,368
2973281,360,455,369
2973282,357,457,367
2973283,358,457,368
2973284,359,459,369
2973285,360,458,370
2973286,357,456,369
2973287,359,455,367
2973288,359,456,367
2973289,359,453,369
2973290,358,457,367
2973291,358,460,367
2973292,359,463,368
2973293,357,462,369
2973294,360,463,368
2973295,358,460,368
2973296,359,457,367
2973297,358,456,367
2973298,356,452,366
2973299,357,453,366
2973300,356,452,365
2973301,357,454,366
2973302,357,456,367
2973303,359,455,369
2973304,360,457,369
2973305,361,461,370
2973306,362,463,372
2973307,362,465,372
2973308,362,466,372
2973309,364,462,372
2973310,361,469,371
2973311,362,464,371
2973312,361,463,371
2973313,363,464,371
2973314,363,464,372
2973315,362,462,371
2973316,362,464,372
2973317,363,458,371
2973318,362,461,372
2973319,362,459,372
2973320,360,460,371
2973321,360,454,371
2973322,360,456,371
2973323,358,456,369
2973324,359,458,368
2973325,358,456,367
2973326,358,456,369
2973327,358,457,368
2973328,358,457,369
2973329,358,458,367
2973330,358,458,368
2973331,358,454,367
2973332,359,454,367
2973333,357,453,367
2973334,356,455,364
2973335,357,454,365
2973336,357,457,364
2973337,358,455,366
2973338,358,459,367
2973339,358,460,369
2973340,360,460,370
2973341,359,459,369
2973342,360,459,369
2973343,359,457,370
2973344,358,453,369
2973345,358,453,368
2973346,357,449,367
2973347,357,455,367
2973348,360,460,369
2973349,360,462,368
2973350,359,464,369
2973351,362,467,372
2973352,361,466,372
2973353,362,465,371
2973354,362,464,371
2973355,362,460,369
2973356,360,459,369
2973357,357,453,368
2973358,359,452,367
2973359,357,452,367
2973360,358,452,366
2973361,357,454,366
2973362,358,457,367
2973363,359,456,367
2973364,359,457,367
2973365,359,458,369
2973366,360,459,369
2973367,360,460,370
2973368,360,462,371
2973369,361,463,371
2973370,361,462,369
2973371,361,460,370
2973372,360,461,371
2973373,361,460,371
2973374,359,456,368
2973375,359,454,367
2973376,357,454,367
2973377,356,453,365
2973378,355,450,365
2973379,355,454,365
2973380,353,452,365
2973381,356,452,365
2973382,356,450,364
2973383,355,453,364
2973384,356,454,364
2973385,357,455,367
2973386,356,457,366
2973387,357,455,367
2973388,357,458,368
2973389,359,459,368
2973390,360,456,368
2973391,358,459,369
2973392,359,456,369
2973393,357,458,367
2973394,357,456,366
2973395,356,454,366
2973396,356,455,365
2973397,357,456,365
2973398,354,451,365
2973399,356,454,365
2973400,357,452,366
2973401,356,452,366
2973402,357,453,366
2973403,355,453,365
2973404,355,452,365
2973405,354,451,365
2973406,355,450,362
2973407,354,450,363
2973408,354,453,362
2973409,354,451,364
2973410,355,455,365
2973411,358,459,365
2973412,358,461,367
2973413,358,463,369
2973414,360,460,370
2973415,359,462,369
2973416,359,459,369
2973417,359,458,368
2973418,357,456,366
2973419,357,454,368
2973420,356,449,366
2973421,357,450,365
2973422,356,447,365
2973423,353,449,364
2973424,353,449,363
2973425,353,449,362
2973426,353,450,362
2973427,353,449,362
2973428,352,448,363
2973429,352,449,362
2973430,353,448,361
2973431,353,449,360
2973432,352,448,359
2973433,351,449,360
2973434,352,450,358
2973435,351,451,359
2973436,352,452,360
2973437,353,453,361
2973438,353,452,363
2973439,354,453,363
2973440,353,453,365
2973441,353,450,364
2973442,354,450,363
2973443,354,449,364
2973444,353,450,364
2973445,353,450,363
2973446,353,449,363
2973447,353,450,363
2973448,353,451,361
2973449,353,453,364
2973450,356,456,364
2973451,356,458,366
2973452,356,459,364
2973453,358,460,367
2973454,359,460,367
2973455,358,459,367
2973456,357,458,367
2973457,357,456,366
2973458,358,454,367
2973459,357,454,367
2973460,356,452,366
2973461,356,450,365
2973462,357,452,365
2973463,356,453,366
2973464,357,454,366
2973465,355,455,366
2973466,358,457,366
2973467,359,460,368
2973468,359,464,370
2973469,361,464,370
2973470,362,465,371
2973471,362,465,372
2973472,361,462,371
2973473,361,459,370
2973474,359,455,369
2973475,359,455,368
2973476,359,458,368
2973477,358,462,369
2973478,359,462,369
2973479,360,461,371
2973480,361,458,370
2973481,362,462,372
2973482,361,461,372
2973483,361,462,371
2973484,361,462,371
2973485,362,460,372
2973486,360,463,373
2973487,363,463,372
2973488,364,463,372
2973489,362,465,372
2973490,363,467,373
2973491,362,462,372
2973492,362,465,369
2973493,362,462,372
2973494,363,463,372
2973495,361,463,370
2973496,360,459,370
2973497,360,457,369
2973498,358,455,370
2973499,358,456,368
2973500,358,455,367
2973501,359,457,369
2973502,358,456,369
2973503,358,459,369
2973504,361,457,370
2973505,360,458,368
2973506,361,458,370
2973507,359,457,369
2973508,358,459,369
2973509,360,459,368
2973510,359,460,369
2973511,359,460,368
2973512,358,460,366
2973513,359,457,368
2973514,359,456,368
2973515,359,460,367
2973516,359,460,369
2973517,360,463,370
2973518,361,461,371
2973519,361,462,371
2973520,361,460,371
2973521,361,459,369
2973522,361,457,371
2973523,360,458,371
2973524,359,459,370
2973525,359,459,370
2973526,361,459,370
2973527,361,461,372
2973528,361,460,370
2973529,360,461,369
2973530,361,460,369
2973531,360,459,369
2973532,359,461,369
2973533,360,461,369
2973534,360,459,368
2973535,359,459,368
2973536,360,459,368
2973537,359,460,369
2973538,361,459,369
2973539,362,463,372
2973540,362,466,372
2973541,363,467,373
2973542,364,470,375
2973543,367,472,377
2973544,367,470,379
2973545,368,472,379
2973546,368,473,378
2973547,368,470,379
2973548,368,473,379
2973549,368,470,375
2973550,368,470,377
2973551,367,470,378
2973552,368,472,376
2973553,367,471,376
2973554,367,472,376
2973555,366,468,376
2973556,366,466,375
2973557,366,466,375
2973558,365,467,375
2973559,364,461,374
2973560,364,464,373
2973561,363,462,372
2973562,364,463,373
2973563,364,460,373
2973564,364,465,374
2973565,363,463,375
2973566,364,467,374
2973567,365,465,375
2973568,365,468,375
2973569,365,466,375
2973570,364,468,374
2973571,366,463,374
2973572,366,467,373
2973573,363,464,374
2973574,361,465,372
2973575,362,460,372
2973576,361,461,371
2973577,361,460,370
2973578,361,462,372
2973579,362,462,370
2973580,362,464,373
2973581,364,460,373
2973582,363,463,372
2973583,364,465,374
2973584,365,465,375
2973585,365,467,374
2973586,364,466,376
2973587,365,466,375
2973588,365,465,374
2973589,365,465,373
2973590,364,465,374
2973591,364,464,372
2973592,361,464,371
2973593,363,464,371
2973594,362,463,371
2973595,361,462,371
2973596,361,465,372
2973597,361,462,371
2973598,361,461,371
2973599,362,458,371
2973600,361,463,371
2973601,362,464,371
2973602,362,464,373
2973603,362,463,374
2973604,365,467,375
2973605,365,465,376
2973606,365,469,376
2973607,367,471,377
2973608,366,472,377
2973609,367,472,378
2973610,367,469,378
2973611,368,474,379
2973612,369,475,379
2973613,370,477,380
2973614,370,479,380
2973615,371,478,381
2973616,370,475,380
2973617,370,473,380
2973618,369,470,379
2973619,370,472,378
2973620,368,468,380
2973621,368,468,377
2973622,368,468,377
2973623,368,469,377
2973624,369,471,378
2973625,369,472,380
2973626,369,474,379
2973627,369,471,382
2973628,370,476,381
2973629,371,476,379
2973630,369,475,379
2973631,368,475,376
2973632,369,474,379
2973633,368,475,379
2973634,369,474,379
2973635,369,474,379
2973636,367,473,379
2973637,368,471,377
2973638,368,468,377
2973639,366,468,376
2973640,367,467,376
2973641,367,467,378
2973642,366,469,377
2973643,367,469,378
2973644,365,470,375
2973645,367,470,377
2973646,367,471,378
2973647,368,470,377
2973648,367,471,376
2973649,366,469,376
2973650,365,469,375
2973651,366,469,376
2973652,366,469,375
2973653,365,470,373
2973654,365,469,374
2973655,365,465,374
2973656,364,468,375
2973657,364,466,374
2973658,364,465,374
2973659,363,467,374
2973660,366,467,375
2973661,366,468,375
2973662,366,467,375
2973663,365,467,376
2973664,367,468,376
2973665,367,468,377
2973666,367,471,377
2973667,368,470,378
2973668,367,473,377
2973669,369,471,377
2973670,368,473,379
2973671,369,472,378
2973672,368,472,377
2973673,368,470,377
2973674,366,470,375
2973675,367,472,376
2973676,367,470,376
2973677,367,468,375
2973678,367,471,376
2973679,366,469,378
2973680,366,469,377
2973681,367,471,377
2973682,367,470,378
2973683,368,469,379
2973684,368,470,380
2973685,368,472,379
2973686,368,471,380
2973687,371,471,380
2973688,369,472,377
2973689,369,473,379
2973690,369,474,379
2973691,369,475,379
2973692,371,477,379
2973693,370,480,380
2973694,372,482,382
2973695,374,482,384
2973696,374,482,384
2973697,374,482,385
2973698,375,479,385
2973699,373,474,384
2973700,371,474,383
2973701,373,474,383
2973702,370,471,382
2973703,370,474,381
2973704,371,472,381
2973705,371,472,381
2973706,372,473,380
2973707,371,472,379
2973708,370,469,380
2973709,371,471,380
2973710,369,474,379
2973711,368,473,379
2973712,370,473,378
2973713,367,471,376
2973714,367,473,377
2973715,368,471,378
2973716,368,471,378
2973717,368,470,377
2973718,367,472,377
2973719,368,470,376
2973720,367,472,377
2973721,367,469,380
2973722,368,471,379
2973723,368,472,379
2973724,366,471,378
2973725,368,469,379
2973726,368,472,377
2973727,370,472,378
2973728,370,471,378
2973729,368,471,378
2973730,369,472,378
2973731,369,471,378
2973732,369,472,378
2973733,368,472,377
2973734,368,471,378
2973735,368,470,376
2973736,367,469,376
2973737,368,470,376
2973738,367,471,376
2973739,368,470,377
2973740,368,470,378
2973741,367,468,376
2973742,369,471,378
2973743,369,470,379
2973744,369,473,379
2973745,370,472,380
2973746,369,474,380
2973747,372,472,380
2973748,371,474,380
2973749,370,475,378
2973750,371,473,381
2973751,370,474,381
2973752,370,475,379
2973753,369,473,379
2973754,370,472,380
2973755,368,472,378
2973756,368,469,377
2973757,368,472,378
2973758,369,473,378
2973759,368,473,379
2973760,368,471,379
2973761,368,470,379
2973762,369,472,380
2973763,371,471,380
2973764,370,471,381
2973765,369,471,379
2973766,369,473,378
2973767,370,473,381
2973768,370,474,380
2973769,369,475,380
2973770,368,476,380
2973771,370,476,380
2973772,369,473,379
2973773,369,474,378
2973774,369,473,379
2973775,369,471,379
2973776,370,475,380
2973777,370,473,379
2973778,369,474,379
2973779,371,472,381
2973780,369,476,381
2973781,370,475,382
2973782,373,476,382
2973783,373,477,384
2973784,372,479,383
2973785,374,478,384
2973786,375,482,385
2973787,375,481,386
2973788,375,480,385
2973789,374,481,383
2973790,375,479,383
2973791,372,474,383
2973792,371,474,382
2973793,372,474,379
2973794,370,473,379
2973795,370,472,379
2973796,370,473,379
2973797,368,471,377
2973798,370,467,378
2973799,369,471,377
2973800,368,471,378
2973801,369,470,379
2973802,369,470,379
2973803,370,471,378
2973804,369,470,378
2973805,367,470,377
2973806,369,471,380
2973807,369,472,378
2973808,368,471,378
2973809,367,470,377
2973810,368,471,376
2973811,366,472,376
2973812,367,469,377
2973813,366,467,376
2973814,366,470,376
2973815,365,470,376
2973816,366,470,375
2973817,367,465,375
2973818,366,466,375
2973819,366,469,377
2973820,366,465,377
2973821,367,468,378
2973822,366,465,378
2973823,368,467,376
2973824,369,469,377
2973825,366,467,378
2973826,368,469,377
2973827,367,469,378
2973828,368,470,377
2973829,367,469,376
2973830,366,467,376
2973831,366,470,375
2973832,365,468,377
2973833,366,468,375
2973834,367,471,375
2973835,366,472,375
2973836,367,471,377
2973837,366,471,377
2973838,368,469,377
2973839,367,470,377
2973840,367,468,378
2973841,367,467,376
2973842,367,470,377
2973843,367,469,379
2973844,368,472,378
2973845,369,473,379
2973846,369,469,378
2973847,369,473,378
2973848,368,473,380
2973849,368,474,379
2973850,369,474,379
2973851,367,474,378
2973852,368,474,379
2973853,369,473,380
2973854,367,472,377
2973855,366,472,377
2973856,368,472,378
2973857,367,473,378
2973858,369,475,379
2973859,370,471,379
2973860,371,476,381
2973861,370,475,381
2973862,371,475,381
2973863,372,476,382
2973864,372,475,382
2973865,371,474,381
2973866,371,473,382
2973867,370,472,380
2973868,369,473,380
2973869,369,469,379
2973870,368,472,380
2973871,369,472,378
2973872,367,471,378
2973873,368,469,376
2973874,367,470,377
2973875,367,469,377
2973876,366,471,376
2973877,368,469,377
2973878,368,471,378
2973879,369,472,378
2973880,369,472,379
2973881,368,470,380
2973882,368,470,380
2973883,368,468,379
2973884,368,470,378
2973885,368,468,377
2973886,367,469,377
2973887,367,468,378
2973888,365,471,377
2973889,366,469,377
2973890,366,468,378
2973891,365,469,376
2973892,365,470,374
2973893,365,470,376
2973894,365,468,374
2973895,365,467,374
2973896,365,467,373
2973897,365,468,373
2973898,365,467,375
2973899,364,466,374
2973900,366,466,374
2973901,365,466,375
2973902,366,468,374
2973903,366,467,376
2973904,366,466,377
2973905,365,467,378
2973906,367,468,375
2973907,368,468,377
2973908,366,468,377
2973909,366,470,375
2973910,367,470,377
2973911,365,469,376
2973912,366,469,376
2973913,365,468,376
2973914,367,466,375
2973915,365,467,374
2973916,365,467,373
2973917,365,463,375
2973918,365,467,375
2973919,365,466,376
2973920,365,463,374
2973921,366,465,374
2973922,365,466,375
2973923,366,466,375
2973924,364,466,376
2973925,366,466,376
2973926,366,467,375
2973927,365,469,376
2973928,366,466,375
2973929,365,467,375
2973930,367,469,375
2973931,366,470,374
2973932,365,469,375
2973933,366,465,375
2973934,364,468,375
2973935,366,468,374
2973936,364,467,374
2973937,364,467,375
2973938,365,467,375
2973939,365,467,376
2973940,365,468,375
2973941,365,465,375
2973942,366,467,375
2973943,366,468,374
2973944,365,468,375
2973945,366,468,375
2973946,366,469,376
2973947,366,467,377
2973948,367,469,378
2973949,368,471,377
2973950,366,471,378
2973951,367,468,376
2973952,366,471,377
2973953,366,469,376
2973954,365,468,375
2973955,365,468,376
2973956,364,466,375
2973957,364,467,374
2973958,365,467,374
2973959,365,466,375
2973960,365,471,375
2973961,366,468,376
2973962,366,469,378
2973963,366,468,377
2973964,366,469,377
2973965,367,469,379
2973966,367,469,379
2973967,368,467,378
2973968,368,468,377
2973969,367,468,375
2973970,366,470,377
2973971,367,466,376
2973972,365,467,376
2973973,365,466,375
2973974,366,466,374
2973975,365,467,375
2973976,365,467,376
2973977,364,467,373
2973978,363,463,374
2973979,364,464,374
2973980,365,465,374
2973981,363,464,373
2973982,365,465,375
2973983,366,465,375
2973984,366,466,375
2973985,365,466,374
2973986,364,465,375
2973987,366,467,374
2973988,364,467,375
2973989,365,466,374
2973990,365,468,373
2973991,365,467,374
2973992,364,467,374
2973993,364,466,374
2973994,364,463,374
2973995,362,465,370
2973996,363,465,372
2973997,363,461,373
2973998,362,466,373
2973999,362,465,373
2974000,364,466,373
2974001,365,465,373
2974002,365,464,374
2974003,364,464,374
2974004,364,465,374
2974005,363,465,374
2974006,364,466,375
2974007,366,462,374
2974008,362,466,374
2974009,365,466,374
2974010,366,466,373
2974011,364,465,373
2974012,365,466,374
2974013,363,466,373
2974014,363,465,372
2974015,363,466,373
2974016,363,465,372
2974017,364,463,374
2974018,366,463,372
2974019,363,464,374
2974020,363,464,374
2974021,363,463,374
2974022,363,464,374
2974023,363,465,373
2974024,365,466,375
2974025,363,466,374
2974026,365,465,374
2974027,365,467,375
2974028,364,466,373
2974029,365,467,375
2974030,365,466,375
2974031,365,466,373
2974032,364,468,375
2974033,365,467,374
2974034,364,467,374
2974035,364,467,373
2974036,364,466,373
2974037,364,463,373
2974038,363,464,373
2974039,364,464,373
2974040,365,464,373
2974041,365,462,374
2974042,365,466,374
2974043,363,462,374
2974044,364,467,373
2974045,363,464,374
2974046,364,466,374
2974047,364,464,374
2974048,364,464,375
2974049,365,466,375
2974050,363,466,373
2974051,364,466,375
2974052,365,468,374
2974053,365,468,374
2974054,365,467,373
2974055,364,465,374
2974056,366,467,373
2974057,364,466,373
2974058,365,466,373
2974059,366,465,374
2974060,364,466,374
2974061,364,465,373
2974062,363,465,374
2974063,365,466,375
2974064,363,466,374
2974065,365,466,375
2974066,364,467,375
2974067,364,465,375
2974068,366,466,374
2974069,365,466,374
2974070,364,464,375
2974071,364,466,373
2974072,363,465,373
2974073,365,462,372
2974074,363,465,371
2974075,363,468,370
2974076,363,467,372
2974077,363,465,373
2974078,362,464,375
2974079,364,465,375
2974080,365,467,374
2974081,365,466,375
2974082,365,467,375
2974083,365,466,376
2974084,366,467,375
2974085,366,463,375
2974086,365,467,375
2974087,366,464,377
2974088,365,463,375
2974089,364,466,373
2974090,364,466,374
2974091,364,466,374
2974092,364,466,374
2974093,363,464,372
2974094,361,465,371
2974095,363,461,372
2974096,362,465,372
2974097,363,464,371
2974098,362,464,371
2974099,363,464,372
2974100,363,464,371
2974101,364,461,374
2974102,363,463,374
2974103,363,464,374
2974104,366,464,374
2974105,365,465,373
2974106,364,465,376
2974107,363,466,373
2974108,364,465,374
2974109,362,467,373
2974110,364,466,372
2974111,363,466,373
2974112,363,466,372
2974113,362,465,372
2974114,363,464,373
2974115,362,465,373
2974116,361,464,371
2974117,363,464,371
2974118,363,463,373
2974119,365,465,373
2974120,363,463,372
2974121,363,463,373
2974122,364,463,374
2974123,364,465,375
2974124,365,466,374
2974125,364,466,375
2974126,365,467,375
2974127,365,466,374
2974128,366,465,374
2974129,366,466,374
2974130,363,467,374
2974131,364,467,374
2974132,365,466,373
2974133,361,465,372
2974134,364,465,373
2974135,363,465,372
2974136,364,464,374
2974137,362,461,371
2974138,363,462,372
2974139,362,465,374
2974140,363,463,373
2974141,363,461,372
2974142,364,461,372
2974143,364,464,374
2974144,366,464,374
2974145,364,463,375
2974146,364,467,375
2974147,362,466,375
2974148,363,466,372
2974149,362,468,373
2974150,364,467,373
2974151,364,468,373
2974152,363,470,373
2974153,363,467,373
2974154,364,465,372
2974155,363,462,372
2974156,362,463,371
2974157,362,462,372
2974158,363,463,372
2974159,362,462,372
2974160,363,462,373
2974161,363,462,372
2974162,363,462,373
2974163,363,462,374
2974164,363,462,373
2974165,364,460,375
2974166,363,464,374
2974167,363,464,374
2974168,364,464,374
2974169,364,466,374
2974170,364,466,372
2974171,364,465,373
2974172,363,465,373
2974173,361,464,372
2974174,361,464,371
2974175,362,463,372
2974176,363,461,371
2974177,363,462,371
2974178,363,461,371
2974179,362,463,374
2974180,363,462,374
2974181,364,463,374
2974182,363,464,372
2974183,365,463,376
2974184,365,462,374
2974185,363,465,375
2974186,363,466,374
2974187,362,466,374
2974188,365,466,373
2974189,363,465,373
2974190,363,466,374
2974191,364,465,372
2974192,363,466,372
2974193,362,466,374
2974194,362,461,372
2974195,363,465,373
2974196,362,464,373
2974197,364,463,372
2974198,362,463,372
2974199,362,462,372
2974200,364,461,374
2974201,364,461,374
2974202,363,464,374
2974203,365,463,375
2974204,364,464,375
2974205,364,463,374
2974206,365,465,375
2974207,367,466,376
2974208,364,466,373
2974209,364,466,374
2974210,365,463,372
2974211,364,465,374
2974212,364,466,373
2974213,363,465,373
2974214,363,464,372
2974215,362,464,371
2974216,362,463,372
2974217,362,466,372
2974218,362,464,372
2974219,363,462,371
2974220,363,463,372
2974221,363,463,373
2974222,364,464,374
2974223,364,464,374
2974224,365,463,375
2974225,365,465,374
2974226,366,465,373
2974227,365,466,374
2974228,366,466,374
1742214215557,NEW REP,,
2974229,364,466,372
2974230,365,467,374
2974231,365,467,373
2974232,363,467,374
2974233,364,467,373
2974234,364,467,373
2974235,364,466,373
2974236,364,466,373
2974237,364,467,375
2974238,365,470,375
2974239,366,467,377
2974240,365,471,376
2974241,366,469,375
2974242,365,468,376
2974243,366,467,376
2974244,366,466,376
2974245,367,469,377
2974246,367,467,375
2974247,368,465,377
2974248,366,467,374
2974249,365,466,374
2974250,363,467,374
2974251,364,466,373
2974252,363,466,374
2974253,363,465,371
2974254,363,466,373
2974255,363,465,372
2974256,362,463,372
2974257,364,463,372
2974258,363,463,373
2974259,364,463,373
2974260,363,464,374
2974261,364,466,374
2974262,364,463,372
2974263,364,463,373
2974264,363,463,374
2974265,366,466,376
2974266,366,465,374
2974267,364,466,375
2974268,363,462,373
2974269,363,466,373
2974270,364,466,373
2974271,361,465,371
2974272,363,462,373
2974273,364,460,372
2974274,363,465,373
2974275,364,464,372
2974276,362,465,372
2974277,363,464,372
2974278,363,465,374
2974279,364,464,373
2974280,363,465,373
2974281,364,465,375
2974282,364,466,373
2974283,364,462,374
2974284,366,465,374
2974285,364,465,376
2974286,365,468,376
2974287,367,469,377
2974288,364,469,374
2974289,366,468,375
2974290,365,469,376
2974291,366,469,375
2974292,366,467,374
2974293,363,468,374
2974294,364,467,374
2974295,364,462,374
2974296,364,462,373
2974297,364,461,374
2974298,364,466,372
2974299,363,466,374
2974300,364,467,373
2974301,366,467,376
2974302,367,470,376
2974303,368,470,378
2974304,368,471,379
2974305,368,469,379
2974306,368,472,379
2974307,370,474,379
2974308,367,472,380
2974309,369,470,377
2974310,367,471,378
2974311,367,471,377
2974312,366,469,376
2974313,366,469,374
2974314,365,470,376
2974315,366,470,375
2974316,366,468,375
2974317,365,468,376
2974318,366,466,376
2974319,365,469,377
2974320,368,469,377
2974321,366,467,377
2974322,365,466,377
2974323,366,465,376
2974324,365,465,376
2974325,366,463,376
2974326,365,465,375
2974327,365,464,375
2974328,365,466,373
2974329,361,464,373
2974330,363,464,372
2974331,364,464,372
2974332,363,464,372
2974333,362,463,371
2974334,361,463,370
2974335,363,465,372
2974336,361,465,372
2974337,364,465,373
2974338,364,463,374
2974339,363,465,373
2974340,365,468,375
2974341,365,467,376
2974342,367,467,375
2974343,365,467,374
2974344,366,465,376
2974345,363,466,376
2974346,366,468,376
2974347,366,467,375
2974348,364,464,374
2974349,365,465,374
2974350,365,465,373
2974351,363,463,374
2974352,363,461,372
2974353,363,462,372
2974354,362,465,372
2974355,362,465,372
2974356,363,465,373
2974357,363,465,372
2974358,363,464,374
2974359,364,466,374
2974360,364,468,374
2974361,364,466,375
2974362,364,465,373
2974363,365,464,376
2974364,366,466,375
2974365,363,465,374
2974366,364,465,375
2974367,366,464,375
2974368,364,464,374
2974369,365,467,374
2974370,365,468,374
2974371,363,465,376
2974372,363,466,374
2974373,364,467,374
2974374,362,466,373
2974375,364,465,373
2974376,363,466,372
2974377,363,465,372
2974378,363,465,371
2974379,364,466,375
2974380,364,466,375
2974381,366,466,376
2974382,366,471,376
2974383,368,470,377
2974384,369,472,379
2974385,369,472,380
2974386,369,473,379
2974387,369,468,379
2974388,368,470,378
2974389,367,471,376
2974390,366,468,376
2974391,365,465,375
2974392,365,464,373
2974393,363,466,373
2974394,364,465,372
2974395,362,464,373
2974396,363,465,371
2974397,363,466,374
2974398,365,466,372
2974399,365,467,373
2974400,367,466,375
2974401,366,469,377
2974402,368,469,377
2974403,367,470,376
2974404,368,470,378
2974405,368,466,377
2974406,367,468,377
2974407,366,464,376
2974408,364,466,374
2974409,363,461,374
2974410,363,465,375
2974411,363,465,374
2974412,363,466,372
2974413,361,465,371
2974414,362,468,371
2974415,364,468,374
2974416,363,469,374
2974417,366,470,375
2974418,365,470,375
2974419,367,471,377
2974420,369,474,380
2974421,371,470,379
2974422,369,474,380
2974423,370,472,380
2974424,368,473,379
2974425,370,473,381
2974426,371,473,382
2974427,370,471,380
2974428,367,469,377
2974429,367,468,376
2974430,367,468,376
2974431,365,466,375
2974432,366,467,374
2974433,366,467,374
2974434,365,466,373
2974435,364,465,373
2974436,363,463,372
2974437,362,464,372
2974438,364,460,372
2974439,364,463,374
2974440,363,464,374
2974441,366,462,374
2974442,364,465,374
2974443,365,468,376
2974444,366,473,376
2974445,369,474,378
2974446,370,477,380
2974447,371,477,380
2974448,371,474,380
2974449,370,475,380
2974450,368,477,378
2974451,366,471,378
2974452,366,470,377
2974453,366,469,376
2974454,366,467,376
2974455,365,469,374
2974456,366,470,376
2974457,366,472,377
2974458,368,468,378
2974459,367,471,378
2974460,367,467,377
2974461,368,471,378
2974462,369,472,378
2974463,367,471,380
2974464,367,472,378
2974465,368,471,379
2974466,369,471,379
2974467,369,470,379
2974468,369,474,380
2974469,370,475,380
2974470,370,475,379
2974471,369,475,378
2974472,369,474,379
2974473,368,473,380
2974474,369,471,378
2974475,366,469,377
2974476,365,466,374
2974477,364,464,374
2974478,364,466,374
2974479,364,464,375
2974480,365,468,376
2974481,366,467,374
2974482,363,466,376
2974483,365,469,377
2974484,366,467,376
2974485,366,468,376
2974486,366,466,376
2974487,364,465,374
2974488,363,463,373
2974489,363,461,372
2974490,362,463,372
2974491,362,462,371
2974492,362,464,371
2974493,362,463,372
2974494,363,467,371
2974495,363,466,374
2974496,364,467,373
2974497,365,468,375
2974498,365,469,376
2974499,365,466,375
2974500,366,466,375
2974501,364,467,374
2974502,364,463,374
2974503,363,461,374
2974504,366,462,374
2974505,363,463,374
2974506,363,465,373
2974507,365,465,374
2974508,364,466,374
2974509,364,466,375
2974510,365,465,375
2974511,363,468,373
2974512,364,467,374
2974513,365,466,372
2974514,364,465,373
2974515,363,463,371
2974516,364,465,372
2974517,362,466,373
2974518,364,466,374
2974519,365,465,374
2974520,365,466,375
2974521,366,467,375
2974522,365,467,376
2974523,367,466,376
2974524,368,468,376
2974525,367,470,378
2974526,367,473,378
2974527,370,476,379
2974528,368,477,379
2974529,371,476,381
2974530,371,478,381
2974531,372,478,381
2974532,371,474,380
2974533,371,474,381
2974534,368,471,377
2974535,368,468,376
2974536,366,465,375
2974537,365,463,374
2974538,365,463,373
2974539,362,461,373
2974540,362,462,373
2974541,363,465,373
2974542,364,467,373
2974543,365,466,376
2974544,367,469,376
2974545,368,470,378
2974546,368,470,378
2974547,369,473,379
2974548,369,472,379
2974549,368,471,377
2974550,368,468,376
2974551,366,466,375
2974552,363,464,374
2974553,364,462,371
2974554,362,463,371
2974555,362,465,370
2974556,363,468,373
2974557,365,472,375
2974558,368,475,378
2974559,371,475,379
2974560,370,479,382
2974561,371,473,382
2974562,373,472,381
2974563,371,469,380
2974564,368,464,378
2974565,368,460,376
2974566,364,461,376
2974567,363,461,372
2974568,362,460,371
2974569,360,460,371
2974570,362,457,371
2974571,360,461,370
2974572,359,460,371
2974573,362,464,369
2974574,360,466,370
2974575,362,462,371
2974576,361,462,371
2974577,361,460,371
2974578,361,461,370
2974579,360,459,371
2974580,360,460,368
2974581,360,460,370
2974582,361,461,371
2974583,361,463,372
2974584,362,465,374
2974585,363,465,372
2974586,363,465,375
2974587,365,468,375
2974588,365,469,376
2974589,365,469,376
2974590,365,467,376
2974591,366,466,375
2974592,363,467,374
2974593,362,462,372
2974594,361,461,371
2974595,361,458,370
2974596,362,462,370
2974597,361,466,372
2974598,362,468,373
2974599,366,470,376
2974600,367,475,378
2974601,368,477,379
2974602,369,473,381
2974603,369,473,379
2974604,368,472,379
2974605,368,463,378
2974606,366,463,376
2974607,363,459,374
2974608,363,463,372
2974609,363,463,372
2974610,364,463,373
2974611,362,467,373
2974612,365,468,374
2974613,364,472,374
2974614,367,473,375
2974615,366,471,376
2974616,367,468,375
2974617,365,466,374
2974618,364,460,374
2974619,363,457,372
2974620,361,455,371
2974621,360,455,370
2974622,360,457,369
2974623,359,459,370
2974624,361,460,372
2974625,364,471,373
2974626,368,476,377
2974627,370,480,380
2974628,373,482,384
2974629,373,483,384
2974630,372,481,384
2974631,372,475,382
2974632,370,472,379
2974633,368,467,377
2974634,366,466,375
2974635,365,467,374
2974636,364,465,374
2974637,365,467,374
2974638,365,468,375
2974639,366,470,375
2974640,367,470,375
2974641,367,472,378
2974642,370,475,379
2974643,369,473,380
2974644,371,474,381
2974645,371,473,381
2974646,368,472,379
2974647,369,471,380
2974648,368,470,378
2974649,367,469,378
2974650,367,471,377
2974651,368,472,378
2974652,369,473,379
2974653,367,475,378
2974654,368,473,380
2974655,367,466,375
2974656,365,466,377
2974657,365,461,375
2974658,365,458,374
2974659,362,457,373
2974660,361,459,371
2974661,362,459,371
2974662,362,460,371
2974663,361,459,371
2974664,361,460,371
2974665,363,459,369
2974666,361,460,370
2974667,360,458,369
2974668,359,458,368
2974669,359,460,368
2974670,362,466,371
2974671,362,467,372
2974672,362,470,374
2974673,365,471,375
2974674,366,470,375
2974675,365,470,376
2974676,365,466,375
2974677,364,463,375
2974678,364,463,373
2974679,364,462,373
2974680,363,460,371
2974681,362,458,371
2974682,362,455,371
2974683,360,457,369
2974684,360,457,370
2974685,360,460,369
2974686,361,462,371
2974687,363,467,373
2974688,364,469,374
2974689,364,470,375
2974690,364,468,375
2974691,365,465,374
2974692,364,467,374
2974693,364,468,373
2974694,365,464,374
2974695,366,469,376
2974696,366,470,376
2974697,366,470,377
2974698,367,469,377
2974699,368,469,378
2974700,369,473,376
2974701,369,472,379
2974702,369,473,381
2974703,369,474,380
2974704,369,472,380
2974705,368,468,380
2974706,368,468,378
2974707,367,465,376
2974708,364,464,375
2974709,364,461,373
2974710,363,460,372
2974711,361,458,370
2974712,362,459,369
2974713,360,458,369
2974714,359,460,370
2974715,360,461,369
2974716,360,463,370
2974717,360,463,371
2974718,362,468,372
2974719,366,472,375
2974720,368,472,379
2974721,370,477,379
2974722,371,479,382
2974723,372,479,383
2974724,372,477,384
2974725,375,476,384
2974726,374,473,383
2974727,372,473,382
2974728,370,471,379
2974729,367,466,378
2974730,368,465,376
2974731,364,464,373
2974732,364,465,373
2974733,364,463,374
2974734,364,466,373
2974735,363,464,372
2974736,364,462,374
2974737,363,463,374
2974738,362,459,373
2974739,362,458,371
2974740,360,457,371
2974741,359,455,369
2974742,359,455,370
2974743,359,456,368
2974744,359,457,369
2974745,361,459,369
2974746,359,461,370
2974747,359,460,370
2974748,359,460,370
2974749,358,459,370
2974750,358,457,368
2974751,359,459,368
2974752,359,460,368
2974753,357,459,367
2974754,359,460,367
2974755,359,458,367
2974756,357,458,368
2974757,357,453,367
2974758,356,454,366
2974759,358,456,368
2974760,358,458,368
2974761,359,458,369
2974762,361,460,370
2974763,362,465,372
2974764,364,469,374
2974765,364,472,374
2974766,365,472,375
2974767,367,474,377
2974768,369,474,379
2974769,369,478,379
2974770,368,477,379
2974771,371,476,380
2974772,368,475,379
2974773,368,472,379
2974774,367,470,378
2974775,366,463,377
2974776,365,465,375
2974777,363,465,373
2974778,364,464,372
2974779,365,463,374
2974780,364,460,373
2974781,363,462,373
2974782,363,460,372
2974783,361,459,371
2974784,362,456,369
2974785,359,456,369
2974786,360,457,368
2974787,359,459,369
2974788,360,461,369
2974789,359,460,369
2974790,360,463,370
2974791,362,463,371
2974792,365,470,373
2974793,366,471,375
2974794,366,475,377
2974795,368,473,377
2974796,367,472,377
2974797,367,473,376
2974798,367,470,377
2974799,366,464,379
2974800,368,466,377
2974801,366,467,377
2974802,367,467,377
2974803,366,468,376
2974804,366,469,377
2974805,366,466,377
2974806,367,467,376
2974807,365,466,375
2974808,363,463,373
2974809,363,462,371
2974810,362,461,370
2974811,361,461,371
2974812,363,465,370
2974813,362,465,371
2974814,363,467,372
2974815,363,467,372
2974816,364,468,373
2974817,365,466,373
2974818,364,463,372
2974819,361,460,372
2974820,362,459,371
2974821,360,454,369
2974822,360,454,369
2974823,358,455,368
2974824,357,454,367
2974825,358,457,370
2974826,358,457,369
2974827,358,456,367
2974828,359,459,369
2974829,360,460,369
2974830,359,461,368
2974831,363,464,371
2974832,361,466,371
2974833,362,464,371
2974834,361,465,372
2974835,364,464,372
2974836,363,463,372
2974837,364,462,371
2974838,364,465,373
2974839,363,467,374
2974840,363,465,374
2974841,365,467,374
2974842,365,467,376
2974843,366,468,377
2974844,365,468,376
2974845,366,467,376
2974846,366,470,375
2974847,367,471,376
2974848,367,469,378
2974849,367,472,377
2974850,369,473,377
2974851,368,476,380
2974852,371,476,380
2974853,371,474,379
2974854,372,474,379
2974855,369,472,378
2974856,368,469,377
2974857,367,465,375
2974858,364,463,374
2974859,364,462,373
2974860,363,461,373
2974861,362,459,371
2974862,363,461,371
2974863,360,461,372
2974864,361,462,372
2974865,362,462,373
2974866,362,461,371
2974867,361,461,372
2974868,361,460,370
2974869,361,459,369
2974870,358,458,368
2974871,358,458,369
2974872,359,459,368
2974873,359,466,369
2974874,361,468,371
2974875,363,468,372
2974876,364,470,373
2974877,366,472,373
2974878,365,470,376
2974879,365,467,377
2974880,365,463,377
2974881,367,465,376
2974882,365,461,375
2974883,365,462,376
2974884,362,462,374
2974885,364,459,373
2974886,364,461,373
2974887,361,460,371
2974888,361,461,370
2974889,363,464,371
2974890,364,470,374
2974891,366,475,376
2974892,367,478,378
2974893,368,478,379
2974894,370,477,380
2974895,370,477,380
2974896,370,472,379
2974897,369,470,379
2974898,368,468,377
2974899,366,468,378
2974900,368,468,377
2974901,367,467,378
2974902,364,464,376
2974903,364,457,375
2974904,362,459,373
2974905,361,455,371
2974906,360,456,368
2974907,359,454,366
2974908,356,452,366
2974909,357,454,367
2974910,356,457,364
2974911,355,458,365
2974912,357,458,366
2974913,360,460,368
2974914,358,463,368
2974915,360,461,369
2974916,359,459,368
2974917,359,457,367
2974918,357,454,367
2974919,357,455,367
2974920,356,454,367
2974921,357,457,366
2974922,358,458,368
2974923,358,459,370
2974924,359,458,368
2974925,359,456,370
2974926,358,453,367
2974927,358,456,368
2974928,357,457,367
2974929,360,461,369
2974930,360,466,369
2974931,362,467,372
2974932,363,468,373
2974933,363,468,373
2974934,364,465,371
2974935,364,464,371
2974936,361,460,369
2974937,361,458,370
2974938,360,460,368
2974939,360,462,371
2974940,364,467,373
2974941,364,472,374
2974942,367,468,377
2974943,367,469,378
2974944,366,467,376
2974945,364,458,374
2974946,361,452,369
2974947,357,450,368
2974948,356,445,364
2974949,354,448,363
2974950,354,450,362
2974951,353,452,362
2974952,354,448,361
2974953,353,454,362
2974954,353,452,362
2974955,355,454,363
2974956,354,453,363
2974957,355,451,364
2974958,354,452,362
2974959,356,453,365
2974960,356,455,365
2974961,357,458,366
2974962,357,462,369
2974963,362,464,372
2974964,363,467,372
2974965,364,467,374
2974966,363,464,373
2974967,362,457,372
2974968,360,456,370
2974969,359,453,369
2974970,355,450,366
2974971,355,447,363
2974972,353,445,360
2974973,350,444,360
2974974,350,447,360
2974975,350,449,359
2974976,350,448,359
2974977,351,449,361
2974978,353,449,362
2974979,353,448,363
2974980,352,448,362
2974981,352,446,363
2974982,353,450,363
2974983,353,452,365
2974984,356,457,365
2974985,358,461,368
2974986,360,469,370
2974987,363,472,374
2974988,367,475,376
2974989,367,476,378
2974990,369,477,379
2974991,369,474,378
2974992,368,468,378
2974993,367,463,375
2974994,362,458,370
2974995,361,455,369
2974996,356,450,366
2974997,355,449,364
2974998,355,446,365
2974999,353,444,361
2975000,352,441,360
2975001,351,442,359
2975002,351,443,359
2975003,349,442,359
2975004,348,441,357
2975005,349,444,359
2975006,351,447,361
2975007,353,453,362
2975008,355,461,365
2975009,360,464,368
2975010,360,468,371
2975011,361,467,372
2975012,363,467,372
2975013,361,462,371
2975014,359,460,369
2975015,359,455,368
2975016,358,454,368
2975017,357,452,365
2975018,356,451,365
2975019,355,449,363
2975020,356,451,366
2975021,356,451,365
2975022,356,457,366
2975023,359,458,369
2975024,357,461,369
2975025,360,458,368
2975026,360,462,370
2975027,360,459,371
2975028,357,461,371
2975029,361,465,370
2975030,363,470,373
2975031,365,474,375
2975032,367,475,376
2975033,368,475,378
2975034,368,474,378
2975035,368,473,378
2975036,366,469,376
2975037,364,463,375
2975038,365,461,372
2975039,360,455,369
2975040,358,451,368
2975041,355,445,366
2975042,355,447,364
2975043,353,444,362
2975044,351,442,360
2975045,352,443,360
2975046,350,444,359
2975047,349,447,359
2975048,351,446,360
2975049,352,450,360
2975050,352,454,361
2975051,354,458,364
2975052,357,465,368
2975053,360,470,369
2975054,363,473,374
2975055,367,474,377
2975056,370,474,378
2975057,368,472,378
2975058,368,468,378
2975059,367,467,377
2975060,366,464,375
2975061,366,463,374
2975062,366,462,375
2975063,363,462,373
2975064,364,461,373
2975065,362,457,370
2975066,359,455,368
2975067,357,451,368
2975068,354,452,364
2975069,356,450,365
2975070,353,451,362
2975071,353,452,362
2975072,354,453,362
2975073,356,461,366
2975074,358,461,368
2975075,360,465,369
2975076,361,465,371
2975077,361,463,371
2975078,362,464,370
2975079,362,461,372
2975080,361,459,372
2975081,360,457,369
2975082,358,453,367
2975083,359,451,367
2975084,357,455,368
2975085,358,451,366
2975086,359,457,368
2975087,360,463,369
2975088,363,468,373
2975089,365,472,375
2975090,368,477,378
2975091,369,476,378
2975092,368,473,378
2975093,366,470,377
2975094,366,467,375
2975095,365,461,375
2975096,364,462,372
2975097,363,463,372
2975098,363,466,372
2975099,363,466,374
2975100,366,471,376
2975101,368,472,378
2975102,368,471,380
2975103,369,472,380
2975104,368,469,379
2975105,367,464,378
2975106,365,458,375
2975107,363,460,373
2975108,361,453,368
2975109,357,452,367
2975110,356,447,364
2975111,353,450,363
2975112,355,452,363
2975113,354,451,363
2975114,354,458,363
2975115,357,459,366
2975116,360,463,369
2975117,359,462,369
2975118,360,458,369
2975119,360,453,368
2975120,354,447,365
2975121,354,440,362
2975122,350,438,360
2975123,349,435,357
2975124,347,434,355
2975125,346,432,354
2975126,344,430,352
2975127,343,433,352
2975128,342,436,350
2975129,343,438,352
2975130,346,441,353
2975131,347,450,355
2975132,350,455,359
2975133,353,459,362
2975134,355,460,364
2975135,355,462,366
2975136,359,462,369
2975137,359,463,368
2975138,362,468,372
2975139,364,476,376
2975140,368,479,380
2975141,370,477,381
2975142,370,472,380
2975143,369,465,378
2975144,365,452,373
2975145,361,450,370
2975146,357,445,365
2975147,355,444,363
2975148,352,440,360
2975149,349,440,358
2975150,348,438,356
2975151,346,439,355
2975152,345,437,353
2975153,342,434,350
2975154,343,432,351
2975155,341,433,350
2975156,342,432,350
2975157,341,429,350
2975158,341,432,349
2975159,341,432,350
2975160,340,433,350
2975161,341,434,350
2975162,343,434,350
2975163,341,434,351
2975164,343,441,352
2975165,345,437,354
2975166,345,443,355
2975167,347,444,355
2975168,348,445,357
2975169,350,444,356
2975170,349,448,358
2975171,350,450,359
2975172,351,448,360
2975173,352,453,363
2975174,353,453,362
2975175,356,455,363
2975176,354,456,363
2975177,357,456,364
2975178,356,454,365
2975179,356,458,368
2975180,360,463,368
2975181,362,469,373
2975182,366,474,377
2975183,368,474,378
2975184,368,472,379
2975185,367,465,376
2975186,363,459,373
2975187,360,455,370
2975188,359,454,368
2975189,357,459,368
2975190,361,467,370
2975191,363,471,371
2975192,364,473,374
2975193,368,471,376
2975194,367,472,376
2975195,367,464,374
2975196,364,461,372
2975197,362,455,370
2975198,359,450,368
2975199,357,448,365
2975200,353,444,362
2975201,351,442,360
2975202,349,440,360
2975203,347,440,358
2975204,349,440,357
2975205,348,440,357
2975206,347,439,357
2975207,347,442,356
2975208,348,442,354
2975209,347,443,356
2975210,347,445,355
2975211,348,444,358
2975212,347,448,358
2975213,350,448,358
2975214,351,451,359
2975215,352,452,360
2975216,354,455,363
2975217,356,460,365
2975218,359,465,369
2975219,360,467,372
2975220,362,464,371
2975221,362,459,372
2975222,361,457,371
2975223,359,452,368
2975224,355,447,365
2975225,355,445,363
2975226,355,447,362
2975227,353,447,362
2975228,354,451,361
2975229,354,453,363
2975230,355,455,365
2975231,355,456,364
2975232,355,455,366
2975233,356,456,364
2975234,355,454,366
2975235,356,455,365
2975236,358,461,365
2975237,359,466,370
2975238,362,467,372
2975239,363,467,373
2975240,362,464,373
2975241,361,460,371
2975242,360,454,369
2975243,359,451,368
2975244,357,451,366
2975245,355,453,365
2975246,356,447,363
2975247,353,448,363
2975248,351,445,360
2975249,352,444,359
2975250,351,445,358
2975251,349,443,357
2975252,348,442,357
2975253,348,439,357
2975254,346,441,356
2975255,345,439,353
2975256,346,442,355
2975257,346,438,356
2975258,347,442,355
2975259,347,444,358
2975260,349,446,357
2975261,349,446,358
2975262,350,447,359
2975263,352,447,361
2975264,350,446,361
2975265,350,446,359
2975266,350,444,360
2975267,350,446,358
2975268,350,445,359
2975269,349,447,358
2975270,350,444,358
2975271,350,447,358
2975272,350,451,360
2975273,352,450,361
2975274,353,454,362
2975275,355,458,364
2975276,355,459,366
2975277,356,457,366
2975278,356,457,366
2975279,358,453,367
2975280,357,453,366
2975281,355,449,365
2975282,356,446,364
2975283,354,452,364
2975284,356,455,367
2975285,360,466,368
2975286,362,467,373
2975287,365,473,374
2975288,365,472,376
2975289,365,467,375
2975290,365,459,372
2975291,361,456,369
2975292,358,452,366
2975293,357,451,364
2975294,356,449,361
2975295,353,447,362
2975296,353,448,362
2975297,356,453,362
2975298,356,459,365
2975299,357,463,368
2975300,362,468,372
2975301,363,469,374
2975302,364,462,374
2975303,364,459,372
2975304,358,454,370
2975305,358,455,368
2975306,355,450,364
2975307,354,447,363
2975308,352,444,362
2975309,351,443,360
2975310,349,443,358
2975311,349,444,356
2975312,348,445,357
2975313,350,448,360
2975314,351,452,360
2975315,354,454,363
2975316,356,459,365
2975317,356,457,368
2975318,358,463,368
2975319,360,461,370
2975320,359,459,369
2975321,360,458,370
2975322,358,458,369
2975323,359,457,368
2975324,359,456,368
2975325,356,455,367
2975326,357,454,367
2975327,356,449,365
2975328,353,447,361
2975329,352,445,361
2975330,350,442,360
2975331,349,444,358
2975332,349,441,357
2975333,347,440,355
2975334,347,443,356
2975335,347,443,356
2975336,347,443,356
2975337,347,440,357
2975338,347,443,359
2975339,348,445,358
2975340,349,448,358
2975341,351,449,363
2975342,356,456,364
2975343,356,458,365
2975344,358,460,368
2975345,359,460,368
2975346,359,458,368
2975347,360,458,366
2975348,358,459,368
2975349,359,459,367
2975350,359,457,366
2975351,358,455,365
2975352,355,452,365
2975353,354,449,362
2975354,353,448,361
2975355,353,450,362
2975356,353,449,361
2975357,354,450,363
2975358,355,458,365
2975359,358,462,367
2975360,361,463,370
2975361,363,468,373
2975362,365,469,376
2975363,364,471,377
2975364,365,465,376
2975365,364,460,373
2975366,362,456,371
2975367,357,456,369
2975368,356,454,366
2975369,355,451,363
2975370,354,449,363
2975371,351,447,361
2975372,350,445,359
2975373,349,446,359
2975374,349,448,357
2975375,350,446,359
2975376,351,444,359
2975377,350,445,359
2975378,350,446,359
2975379,351,446,360
2975380,352,445,361
2975381,352,445,362
2975382,354,451,363
2975383,354,451,363
2975384,354,454,363
2975385,354,453,364
2975386,352,451,364
2975387,354,451,363
2975388,353,447,362
2975389,352,446,362
2975390,352,447,360
2975391,353,447,360
2975392,352,447,359
2975393,351,447,359
2975394,351,446,358
2975395,351,446,360
2975396,351,450,361
2975397,353,449,361
2975398,352,454,363
2975399,355,455,365
2975400,356,460,368
2975401,360,461,369
2975402,361,463,370
2975403,362,464,371
2975404,362,465,372
2975405,364,463,374
2975406,362,459,372
2975407,361,462,372
2975408,361,465,372
2975409,362,465,373
2975410,363,465,372
2975411,361,463,371
2975412,359,460,369
2975413,359,454,368
2975414,356,450,366
2975415,354,449,364
2975416,353,448,363
2975417,352,446,362
2975418,351,444,360
2975419,351,445,361
2975420,350,443,358
2975421,352,445,359
2975422,351,445,360
2975423,350,446,360
2975424,351,447,361
2975425,352,448,362
2975426,353,447,362
2975427,352,448,359
2975428,351,447,360
2975429,352,447,360
2975430,351,447,360
2975431,351,448,360
2975432,352,452,360
2975433,352,453,362
2975434,353,454,363
2975435,353,453,363
2975436,356,454,364
2975437,356,450,365
2975438,355,449,363
2975439,352,448,361
2975440,353,446,363
2975441,352,449,362
2975442,354,451,362
2975443,353,451,363
2975444,354,451,363
2975445,354,454,366
2975446,355,454,364
2975447,356,459,367
2975448,359,464,367
2975449,359,463,368
2975450,360,461,370
2975451,360,460,371
2975452,358,457,366
2975453,357,455,366
2975454,356,449,363
2975455,354,451,362
2975456,354,451,364
2975457,355,452,364
2975458,355,455,365
2975459,357,455,366
2975460,356,458,367
2975461,358,460,369
2975462,359,460,369
2975463,360,461,370
2975464,360,460,370
2975465,361,461,371
2975466,361,460,370
2975467,359,453,368
2975468,357,453,368
2975469,357,452,364
2975470,356,452,363
2975471,354,449,362
2975472,353,450,360
2975473,352,449,359
2975474,351,448,360
2975475,354,451,361
2975476,353,453,363
2975477,354,454,362
2975478,354,452,365
2975479,354,453,364
2975480,355,453,365
2975481,356,452,365
2975482,357,454,365
2975483,357,455,367
2975484,357,456,366
2975485,357,455,366
2975486,355,452,365
2975487,356,453,365
2975488,355,447,364
2975489,356,452,364
2975490,354,455,363
2975491,355,457,364
2975492,357,459,365
2975493,358,462,368
2975494,360,461,369
2975495,359,460,369
2975496,359,457,367
2975497,358,455,366
2975498,357,453,366
2975499,357,455,365
2975500,357,453,366
2975501,357,450,367
2975502,358,455,366
2975503,358,455,367
2975504,356,451,366
2975505,357,451,366
2975506,355,450,365
2975507,354,451,364
2975508,353,447,363
2975509,353,447,361
2975510,352,448,362
2975511,353,450,363
2975512,353,451,361
2975513,352,452,364
2975514,353,453,362
2975515,353,452,363
2975516,353,452,365
2975517,353,452,362
2975518,353,448,363
2975519,353,444,362
2975520,353,448,363
2975521,354,448,362
2975522,354,448,363
2975523,354,449,363
2975524,354,448,363
2975525,354,451,362
2975526,353,450,365
2975527,354,450,363
2975528,354,451,363
2975529,353,452,362
2975530,352,453,364
2975531,354,455,366
2975532,355,459,366
2975533,356,460,366
2975534,357,458,366
2975535,357,459,366
2975536,356,455,368
2975537,357,453,366
2975538,356,450,364
2975539,355,450,364
2975540,356,449,364
2975541,357,452,365
2975542,355,452,364
2975543,355,452,366
2975544,355,453,364
2975545,356,454,364
2975546,356,453,365
2975547,355,453,365
2975548,356,455,365
2975549,356,457,366
2975550,354,456,365
2975551,355,455,365
2975552,356,453,363
2975553,354,450,364
2975554,354,450,363
2975555,353,451,362
2975556,353,451,364
2975557,356,453,365
2975558,357,459,366
2975559,360,460,369
2975560,359,459,370
2975561,358,455,371
2975562,359,457,369
2975563,358,452,368
2975564,356,450,365
2975565,356,445,365
2975566,353,447,363
2975567,354,448,363
2975568,353,450,362
2975569,352,450,363
2975570,353,450,362
2975571,354,453,363
2975572,354,453,361
2975573,352,451,362
2975574,354,449,361
2975575,352,451,362
2975576,352,449,361
2975577,352,448,361
2975578,350,447,361
2975579,351,448,360
2975580,353,447,361
2975581,353,450,363
2975582,353,452,364
2975583,357,454,365
2975584,357,457,367
2975585,357,458,366
2975586,360,460,368
2975587,360,459,368
2975588,361,460,368
2975589,361,463,370
2975590,361,466,370
2975591,360,468,372
2975592,363,470,373
2975593,364,469,374
2975594,365,468,374
2975595,363,462,374
2975596,362,458,371
2975597,360,457,369
2975598,359,454,369
2975599,360,454,367
2975600,357,451,367
2975601,356,451,364
2975602,356,449,364
2975603,355,448,363
2975604,353,446,363
2975605,354,448,362
2975606,353,448,363
2975607,354,453,363
2975608,354,453,363
2975609,354,454,365
2975610,355,455,365
2975611,355,456,364
2975612,355,454,364
2975613,354,454,364
2975614,355,452,363
2975615,354,449,361
2975616,353,448,362
2975617,351,449,362
2975618,351,447,363
2975619,352,448,361
2975620,354,450,362
2975621,354,452,364
2975622,357,454,365
2975623,356,457,366
2975624,358,458,368
2975625,359,460,369
2975626,359,456,368
2975627,358,457,368
2975628,358,456,368
2975629,357,454,365
2975630,356,453,364
2975631,353,452,364
2975632,354,453,363
2975633,354,453,363
2975634,354,451,362
2975635,353,450,361
2975636,353,451,362
2975637,353,449,362
2975638,354,448,363
2975639,352,448,363
2975640,353,446,363
2975641,353,448,363
2975642,355,452,364
2975643,355,456,366
2975644,357,459,367
2975645,357,458,368
2975646,358,455,368
2975647,359,458,368
2975648,359,461,369
2975649,358,461,368
2975650,360,462,368
2975651,360,463,369
2975652,360,461,368
2975653,360,461,369
2975654,359,461,368
2975655,359,458,367
2975656,359,455,367
2975657,358,454,367
2975658,358,452,367
2975659,358,454,367
2975660,357,455,368
2975661,359,455,368
2975662,360,455,369
2975663,360,457,367
2975664,360,458,369
2975665,357,457,369
2975666,358,456,367
2975667,358,456,367
2975668,358,457,368
2975669,357,459,367
2975670,359,460,368
2975671,360,462,368
2975672,361,464,369
2975673,360,463,370
2975674,360,463,370
2975675,361,461,369
2975676,359,460,368
2975677,359,460,367
2975678,359,460,370
2975679,360,459,369
2975680,360,460,370
2975681,358,459,371
2975682,360,460,369
2975683,362,461,371
2975684,361,462,370
2975685,362,462,373
2975686,362,464,373
2975687,364,462,372
2975688,362,458,371
2975689,361,461,370
2975690,360,458,368
2975691,356,456,367
2975692,358,454,367
2975693,357,455,365
2975694,357,458,365
2975695,358,459,367
2975696,359,459,368
2975697,359,457,367
2975698,358,455,367
2975699,357,454,366
2975700,356,452,367
2975701,358,453,367
2975702,356,455,365
2975703,357,452,367
2975704,357,455,367
2975705,358,458,366
2975706,358,458,367
2975707,360,460,369
2975708,360,461,368
2975709,358,461,368
2975710,359,460,367
2975711,358,455,367
2975712,356,452,366
2975713,355,450,364
2975714,353,451,361
2975715,353,450,362
2975716,352,451,361
2975717,355,456,364
2975718,356,454,366
2975719,357,459,367
2975720,358,458,368
2975721,358,460,370
2975722,360,462,370
2975723,362,462,372
2975724,360,462,372
2975725,361,463,371
2975726,362,463,373
2975727,361,461,372
2975728,361,463,372
2975729,363,464,372
2975730,362,464,372
2975731,361,460,370
2975732,361,457,371
2975733,360,461,369
2975734,359,458,368
2975735,359,457,367
2975736,358,455,369
2975737,357,456,367
2975738,358,456,367
2975739,358,456,367
2975740,358,458,368
2975741,359,457,368
2975742,358,456,369
2975743,359,454,368
2975744,357,457,370
2975745,361,460,369
2975746,359,461,368
2975747,361,460,371
2975748,360,463,371
2975749,360,463,370
2975750,359,463,370
2975751,360,464,369
2975752,360,465,370
2975753,362,467,372
2975754,363,467,371
2975755,363,467,373
2975756,364,464,373
2975757,361,461,372
2975758,362,460,371
2975759,361,461,370
2975760,363,465,373
2975761,367,475,377
2975762,368,479,379
2975763,370,480,383
2975764,373,479,385
2975765,373,480,384
2975766,373,470,383
2975767,369,467,380
2975768,367,462,375
2975769,365,457,371
2975770,362,456,370
2975771,359,452,367
2975772,357,453,367
2975773,354,452,363
2975774,356,455,363
2975775,357,455,366
2975776,358,457,367
2975777,358,460,368
2975778,359,455,368
2975779,358,457,368
2975780,360,452,369
2975781,360,454,368
2975782,356,451,365
2975783,357,453,365
2975784,356,450,365
2975785,357,452,366
2975786,355,452,365
2975787,356,451,365
2975788,356,454,364
2975789,354,452,363
2975790,355,452,363
2975791,355,455,364
2975792,353,454,363
2975793,352,452,362
2975794,352,452,364
2975795,353,451,362
2975796,354,452,362
2975797,355,455,364
2975798,355,455,366
2975799,357,458,367
2975800,358,462,368
2975801,361,465,371
2975802,363,468,373
2975803,366,469,375
2975804,365,471,375
2975805,366,468,376
2975806,366,469,375
2975807,366,470,377
2975808,367,475,379
2975809,369,479,378
2975810,370,481,380
2975811,373,482,383
2975812,372,480,380
2975813,371,479,383
2975814,372,478,382
2975815,372,478,382
2975816,371,476,381
2975817,371,474,380
2975818,370,471,380
2975819,367,470,379
2975820,367,466,376
2975821,366,464,377
2975822,363,461,375
2975823,363,463,374
2975824,363,461,374
2975825,362,458,372
2975826,361,459,371
2975827,360,454,369
2975828,359,455,368
2975829,358,455,366
2975830,358,451,366
2975831,355,451,364
2975832,354,453,363
2975833,353,453,363
2975834,354,451,364
2975835,353,453,362
2975836,353,451,363
2975837,352,451,362
2975838,355,452,363
2975839,355,451,364
2975840,355,452,364
2975841,356,452,365
2975842,360,461,370
2975843,361,468,372
2975844,365,474,376
2975845,367,476,378
2975846,369,480,379
2975847,370,474,380
2975848,369,471,379
2975849,366,466,376
2975850,364,462,374
2975851,362,457,372
2975852,361,458,371
2975853,360,455,370
2975854,359,462,370
2975855,361,466,371
2975856,364,468,374
2975857,367,475,376
2975858,367,478,378
2975859,369,476,380
2975860,370,472,380
2975861,368,470,380
2975862,368,467,377
2975863,366,463,376
2975864,365,462,376
2975865,363,463,375
2975866,365,466,374
2975867,365,463,373
2975868,363,464,374
2975869,364,463,372
2975870,361,463,372
2975871,361,461,371
2975872,359,460,369
2975873,359,454,368
2975874,358,457,368
2975875,357,456,368
2975876,358,456,366
2975877,357,455,367
2975878,356,458,368
2975879,357,457,367
2975880,359,452,369
2975881,357,454,369
2975882,359,459,369
2975883,359,459,369
2975884,362,464,371
2975885,361,464,371
2975886,363,465,372
2975887,363,465,374
2975888,365,465,372
2975889,363,468,374
2975890,364,468,374
2975891,365,472,375
2975892,365,472,375
2975893,366,473,377
2975894,368,471,378
2975895,367,473,378
2975896,368,473,377
2975897,368,467,377
2975898,368,466,376
2975899,366,466,376
2975900,367,467,376
2975901,367,464,376
2975902,367,468,377
2975903,368,467,378
2975904,366,472,377
2975905,368,471,378
2975906,367,469,378
2975907,368,467,377
2975908,365,465,374
2975909,363,463,374
2975910,362,462,371
2975911,362,463,370
2975912,360,459,370
2975913,360,462,369
2975914,361,462,370
2975915,362,462,371
2975916,363,466,372
2975917,363,466,372
2975918,363,466,373
2975919,363,463,373
2975920,363,462,374
2975921,362,458,373
2975922,361,458,370
2975923,361,456,370
2975924,360,454,369
2975925,359,458,369
2975926,359,457,368
2975927,357,460,367
2975928,358,461,367
2975929,359,460,368
2975930,359,462,368
2975931,359,459,368
2975932,359,460,366
2975933,358,460,368
2975934,359,460,368
2975935,359,460,369
2975936,359,455,368
2975937,359,459,368
2975938,360,459,369
2975939,359,461,371
2975940,359,462,370
2975941,361,463,370
2975942,363,465,372
2975943,363,466,374
2975944,365,469,375
2975945,366,473,377
2975946,370,476,379
2975947,369,477,380
2975948,369,476,380
2975949,371,475,380
2975950,370,474,379
2975951,369,470,377
2975952,367,467,374
2975953,366,461,373
2975954,362,463,373
2975955,363,462,371
2975956,361,462,371
2975957,361,465,369
2975958,363,463,373
2975959,364,463,372
2975960,363,461,373
2975961,363,461,374
2975962,362,460,372
2975963,362,462,372
2975964,362,464,373
2975965,364,464,373
2975966,365,468,374
2975967,366,468,374
2975968,366,470,375
2975969,368,469,376
2975970,367,471,377
2975971,368,473,376
2975972,369,468,378
2975973,367,471,377
2975974,367,468,378
2975975,367,468,377
2975976,367,464,376
2975977,365,467,375
2975978,365,468,376
2975979,366,467,375
2975980,366,469,378
2975981,367,465,377
2975982,368,467,377
2975983,367,466,376
2975984,364,460,375
2975985,362,459,372
2975986,362,458,371
2975987,360,454,370
2975988,358,460,369
2975989,360,456,367
2975990,358,456,367
2975991,358,458,368
2975992,358,459,368
2975993,358,458,368
2975994,359,458,368
2975995,359,461,368
2975996,360,462,368
2975997,361,464,371
2975998,364,467,373
2975999,366,469,373
2976000,366,469,376
2976001,366,467,377
2976002,368,469,378
2976003,366,466,376
2976004,365,461,376
2976005,364,461,374
2976006,363,463,373
2976007,364,463,371
2976008,363,459,371
2976009,362,462,372
2976010,361,461,371
2976011,361,460,369
2976012,360,460,367
2976013,359,460,367
2976014,358,459,368
2976015,359,460,368
2976016,360,461,371
2976017,360,459,370
2976018,361,461,371
2976019,361,460,372
2976020,363,464,372
2976021,363,463,375
2976022,364,462,374
2976023,364,467,374
2976024,363,466,375
2976025,366,468,375
2976026,365,470,376
2976027,367,472,377
2976028,367,470,378
2976029,365,473,378
2976030,367,472,377
2976031,366,471,376
2976032,366,468,375
2976033,365,464,375
2976034,366,466,375
2976035,363,466,372
2976036,364,465,372
2976037,363,461,375
2976038,363,461,374
2976039,364,466,372
2976040,363,463,371
2976041,364,462,373
2976042,363,463,373
2976043,363,462,372
2976044,363,461,373
2976045,362,462,372
2976046,362,463,372
2976047,363,462,372
2976048,362,461,371
2976049,362,459,369
2976050,360,458,368
2976051,359,457,367
2976052,360,458,368
2976053,358,460,368
2976054,358,460,368
2976055,358,460,367
2976056,358,458,369
2976057,359,459,368
2976058,360,457,367
2976059,358,455,367
2976060,359,455,369
2976061,357,454,367
2976062,356,455,367
2976063,359,455,366
2976064,357,454,367
2976065,358,452,366
2976066,356,455,365
2976067,355,452,366
2976068,355,451,364
2976069,355,449,363
2976070,354,451,362
2976071,354,450,362
2976072,353,447,361
2976073,354,449,360
2976074,351,448,360
2976075,351,447,359
2976076,352,446,360
2976077,351,445,359
2976078,351,445,360
2976079,352,447,361
2976080,351,446,362
2976081,354,449,362
2976082,354,449,363
2976083,354,451,362
2976084,354,452,364
2976085,355,451,363
2976086,356,456,366
2976087,357,458,367
2976088,358,459,366
2976089,357,456,367
2976090,358,456,368
2976091,355,456,365
2976092,355,457,365
2976093,355,454,365
2976094,355,453,363
2976095,356,456,365
2976096,357,456,366
2976097,358,457,367
2976098,356,458,368
2976099,357,458,369
2976100,359,459,369
2976101,361,460,369
2976102,359,458,369
2976103,362,458,370
2976104,359,459,370
2976105,360,460,369
2976106,361,460,370
2976107,361,465,373
2976108,363,470,371
2976109,364,469,374
2976110,364,470,373
2976111,364,469,376
2976112,364,469,375
2976113,364,466,372
2976114,364,465,373
2976115,364,459,372
2976116,361,457,370
2976117,361,458,370
2976118,362,457,370
2976119,360,459,369
2976120,361,461,370
2976121,362,464,371
2976122,365,466,373
2976123,365,468,375
2976124,366,470,374
2976125,366,468,376
2976126,366,468,374
2976127,366,465,375
2976128,363,464,374
2976129,363,458,372
2976130,362,459,371
2976131,361,459,370
2976132,360,460,369
2976133,358,458,367
2976134,359,457,367
2976135,356,456,366
2976136,357,458,367
2976137,357,458,368
2976138,357,458,368
2976139,358,458,367
2976140,359,457,369
2976141,360,458,370
2976142,361,461,370
2976143,360,461,370
2976144,362,460,370
2976145,360,462,370
2976146,361,460,371
2976147,364,463,371
2976148,361,464,372
2976149,362,465,372
2976150,364,464,372
2976151,362,465,372
2976152,361,463,371
2976153,361,463,372
2976154,361,462,370
2976155,361,460,369
2976156,361,459,369
2976157,360,460,369
2976158,360,463,371
2976159,362,461,371
2976160,363,464,373
2976161,366,469,374
2976162,365,471,376
2976163,368,474,378
2976164,367,474,380
2976165,369,473,380
2976166,369,472,379
2976167,368,471,379
2976168,367,468,377
2976169,366,467,376
2976170,366,466,375
2976171,365,466,373
2976172,363,460,373
2976173,363,464,372
2976174,362,463,371
2976175,362,462,370
2976176,362,459,370
2976177,361,462,371
2976178,362,461,371
2976179,361,461,371
2976180,361,463,371
2976181,362,463,371
2976182,363,465,372
2976183,364,466,375
2976184,367,468,375
2976185,366,469,376
2976186,366,472,377
2976187,366,471,378
2976188,367,473,378
2976189,368,470,378
2976190,366,472,375
2976191,367,472,376
2976192,366,472,377
2976193,368,470,377
2976194,367,472,377
2976195,367,471,376
2976196,366,467,378
2976197,366,464,376
2976198,367,465,375
2976199,364,463,374
2976200,365,464,374
2976201,364,464,373
2976202,363,464,373
2976203,364,463,374
2976204,364,463,374
2976205,363,465,374
2976206,367,469,376
2976207,366,472,376
2976208,367,473,378
2976209,368,473,378
2976210,368,474,378
2976211,367,469,376
2976212,366,468,376
2976213,366,468,375
2976214,365,463,374
2976215,364,461,373
2976216,362,463,372
2976217,362,461,372
2976218,363,461,373
2976219,362,458,372
2976220,362,461,372
2976221,363,460,373
2976222,363,463,373
2976223,364,463,373
2976224,363,464,373
2976225,363,463,372
2976226,364,466,374
2976227,362,465,374
2976228,361,464,372
2976229,363,464,372
2976230,363,461,372
2976231,363,461,371
2976232,362,463,373
2976233,362,462,371
2976234,362,465,372
2976235,360,465,371
2976236,364,466,373
2976237,365,465,374
2976238,364,468,373
2976239,365,469,376
2976240,367,470,377
2976241,366,467,378
2976242,367,469,378
2976243,367,468,377
2976244,367,469,378
2976245,365,469,377
2976246,366,467,377
2976247,366,465,377
2976248,366,467,375
2976249,366,466,374
2976250,367,467,374
2976251,365,466,374
2976252,365,463,373
2976253,362,466,372
2976254,362,464,371
2976255,363,463,372
2976256,361,465,371
2976257,364,466,373
2976258,364,470,375
2976259,368,472,376
2976260,367,473,379
2976261,369,472,380
2976262,368,472,379
2976263,369,470,379
2976264,368,470,379
2976265,367,466,377
2976266,366,467,375
2976267,364,464,374
2976268,366,469,375
2976269,365,470,373
2976270,366,469,375
2976271,366,469,375
2976272,364,470,375
2976273,364,466,373
2976274,364,465,373
2976275,363,465,374
2976276,364,463,373
2976277,364,464,373
2976278,363,464,373
2976279,364,461,373
2976280,364,463,374
2976281,365,462,374
2976282,364,465,374
2976283,364,464,376
2976284,363,465,375
2976285,363,466,375
2976286,363,466,373
2976287,364,467,374
2976288,365,468,374
2976289,365,468,375
2976290,364,467,373
2976291,364,467,374
2976292,362,467,373
2976293,363,465,372
2976294,365,465,372
2976295,363,465,374
2976296,364,463,374
2976297,365,465,374
2976298,366,467,375
2976299,365,464,377
2976300,366,469,375
2976301,365,468,376
2976302,366,471,375
2976303,368,470,377
2976304,367,470,376
2976305,366,469,377
2976306,367,466,375
2976307,365,463,375
2976308,364,465,374
2976309,363,463,374
2976310,364,463,373
2976311,362,460,371
2976312,362,463,372
2976313,361,463,371
2976314,363,462,370
2976315,361,463,371
2976316,361,461,370
2976317,361,461,371
2976318,361,461,372
2976319,360,461,370
2976320,361,462,371
2976321,362,462,371
2976322,364,462,372
2976323,361,464,374
2976324,363,463,373
2976325,363,463,372
2976326,363,463,372
2976327,362,462,370
2976328,361,462,371
2976329,361,463,371
2976330,361,462,369
2976331,360,463,371
2976332,360,462,370
2976333,360,461,370
2976334,359,462,370
2976335,362,461,370
2976336,360,461,370
2976337,361,462,369
2976338,362,462,372
2976339,362,462,371
2976340,363,466,373
2976341,366,467,375
2976342,363,471,376
2976343,367,472,378
2976344,367,474,379
2976345,369,473,379
2976346,369,472,380
2976347,370,473,379
2976348,366,471,378
2976349,366,470,376
2976350,366,466,377
2976351,366,467,375
2976352,364,465,374
2976353,363,463,372
2976354,364,464,373
2976355,362,465,372
2976356,363,464,372
2976357,363,462,373
2976358,363,463,371
2976359,362,464,374
2976360,365,467,373
2976361,366,466,374
2976362,366,467,376
2976363,367,471,377
2976364,368,472,378
2976365,368,473,377
2976366,370,474,378
2976367,369,475,379
2976368,372,473,379
2976369,368,472,379
2976370,368,470,377
2976371,365,469,376
2976372,365,466,375
2976373,363,466,373
2976374,363,465,374
2976375,362,464,373
2976376,363,463,373
2976377,362,463,372
2976378,363,462,374
2976379,362,464,372
2976380,363,463,372
2976381,361,463,372
2976382,363,462,372
2976383,364,465,373
2976384,363,464,373
2976385,364,465,373
2976386,365,466,373
2976387,362,464,373
2976388,363,465,374
2976389,364,466,372
2976390,363,463,371
2976391,362,465,372
2976392,362,463,371
2976393,360,459,370
2976394,361,462,369
2976395,360,462,369
2976396,361,458,371
2976397,361,457,370
2976398,360,459,370
2976399,361,459,370
2976400,361,458,372
2976401,361,460,370
2976402,360,460,371
2976403,361,460,371
2976404,362,461,372
2976405,363,463,372
2976406,362,460,373
2976407,361,463,369
2976408,362,464,371
2976409,363,463,372
2976410,361,464,370
