Time (ms),Bicep,Shoulder,Tricep
221814,341,447,345
221815,335,448,341
221816,328,448,330
221817,322,448,322
221818,322,449,325
221819,331,449,335
221820,340,447,343
221821,347,450,357
221822,354,447,365
221823,359,448,370
221824,363,447,376
221825,368,447,381
221826,376,449,393
221827,384,448,401
221828,382,450,398
221829,376,449,390
221830,368,446,378
221831,357,449,368
221832,352,450,359
221833,347,448,353
221834,341,451,347
221835,335,449,341
221836,327,449,329
221837,322,449,323
221838,321,447,326
221839,330,448,335
221840,336,448,345
221841,347,449,356
221842,353,449,365
221843,357,449,371
221844,363,444,377
221845,369,449,384
221846,376,448,393
221847,385,451,402
221848,384,450,399
221849,376,452,391
221850,367,449,380
221851,360,450,367
221852,354,448,360
221853,347,450,354
221854,340,450,346
221855,339,452,341
221856,327,449,331
221857,322,449,324
221858,322,449,325
221859,329,448,335
221860,336,450,343
221861,346,447,355
221862,352,449,364
221863,359,448,370
221864,362,449,377
221865,368,449,383
221866,378,449,393
221867,383,449,401
221868,384,450,399
221869,376,449,390
221870,368,451,379
221871,359,451,369
221872,353,451,359
221873,347,448,353
221874,341,450,347
221875,337,448,341
221876,327,453,330
221877,322,447,323
221878,322,452,327
221879,331,449,337
221880,340,449,345
221881,347,448,357
221882,354,449,364
221883,359,450,371
221884,365,451,376
221885,370,449,383
221886,378,451,394
221887,384,450,402
221888,384,449,398
221889,377,449,391
221890,368,451,379
221891,360,451,369
221892,353,452,360
221893,350,451,355
221894,343,449,347
221895,339,451,341
221896,332,450,333
221897,324,451,326
221898,323,451,327
221899,330,449,336
221900,339,451,347
221901,345,450,357
221902,353,452,364
221903,358,451,370
221904,365,452,377
221905,370,452,383
221906,378,453,394
221907,385,452,402
221908,384,452,401
221909,378,451,392
221910,371,452,382
221911,360,453,368
221912,353,454,360
221913,348,450,354
221914,343,452,349
221915,338,450,342
221916,331,453,334
221917,324,450,324
221918,325,451,326
221919,331,452,335
221920,339,452,346
221921,348,452,358
221922,355,451,366
221923,361,453,373
221924,366,451,380
221925,371,451,383
221926,380,452,394
221927,386,452,403
221928,385,454,402
221929,379,453,393
221930,368,453,381
221931,360,451,370
221932,355,443,361
221933,349,451,354
221934,343,454,345
221935,339,451,344
221936,331,451,332
221937,324,452,326
221938,325,449,327
221939,331,452,337
221940,338,452,346
221941,348,449,360
221942,356,452,367
221943,361,453,373
221944,365,451,379
221945,370,449,386
221946,378,451,395
221947,387,452,403
221948,385,454,402
221949,379,454,393
221950,372,452,381
221951,362,454,370
221952,354,450,361
221953,350,454,356
221954,344,456,347
221955,339,453,344
221956,329,451,332
221957,325,452,326
221958,324,453,328
221959,330,451,335
221960,339,451,346
221961,348,450,356
221962,356,451,366
221963,359,451,372
221964,366,449,376
221965,370,452,383
221966,378,451,395
221967,386,451,402
221968,386,454,402
221969,377,456,391
221970,371,449,382
221971,360,452,370
221972,354,452,360
221973,348,452,354
221974,342,455,348
221975,338,451,343
221976,330,450,332
221977,324,452,325
221978,324,447,326
221979,332,450,336
221980,337,451,344
221981,347,451,355
221982,355,450,365
221983,358,451,371
221984,363,451,379
221985,369,451,383
221986,379,449,394
221987,383,454,401
221988,383,450,400
221989,377,452,391
221990,369,451,382
221991,360,450,369
221992,351,451,360
221993,348,452,355
221994,341,452,347
221995,336,451,343
221996,328,451,332
221997,324,451,327
221998,324,452,325
221999,330,450,335
222000,336,451,344
222001,348,450,356
222002,354,451,365
222003,358,450,370
222004,365,452,378
222005,369,453,383
222006,378,452,394
222007,384,452,401
222008,387,454,399
222009,380,451,393
222010,370,450,383
222011,360,453,369
222012,352,452,361
222013,349,453,356
222014,342,449,349
222015,339,453,343
222016,330,452,332
222017,325,452,325
222018,324,451,327
222019,330,452,335
222020,337,449,345
222021,347,453,356
222022,355,452,367
222023,359,452,372
222024,366,450,379
222025,370,451,385
222026,380,450,395
222027,385,453,403
222028,386,454,402
222029,378,453,394
222030,372,453,383
222031,362,454,372
222032,354,452,363
222033,350,453,358
222034,344,453,351
222035,341,454,347
222036,331,451,334
222037,325,453,328
222038,325,453,329
222039,333,453,337
222040,339,454,347
222041,348,453,356
222042,353,454,367
222043,361,453,372
222044,366,454,379
222045,370,455,385
222046,380,453,396
222047,386,454,402
222048,388,453,402
222049,381,454,393
222050,372,455,383
222051,363,453,372
222052,355,456,363
222053,349,454,356
222054,344,455,349
222055,341,454,344
222056,332,453,334
222057,326,453,329
222058,327,451,328
222059,334,454,337
222060,339,454,346
222061,350,454,358
222062,357,453,365
222063,360,450,373
222064,367,455,381
222065,370,453,384
222066,379,455,396
222067,387,455,404
222068,387,453,403
222069,381,455,394
222070,373,454,383
222071,364,455,371
222072,355,454,363
222073,350,455,358
222074,346,456,350
222075,341,453,346
222076,332,451,335
222077,327,454,328
222078,325,453,329
222079,332,456,337
222080,340,454,345
222081,349,458,359
222082,356,454,366
222083,362,451,372
222084,368,453,381
222085,372,454,385
222086,380,453,396
222087,386,454,404
222088,385,455,403
222089,381,454,395
222090,374,453,384
222091,362,453,371
222092,355,453,363
222093,350,454,356
222094,343,455,350
222095,341,453,345
222096,331,451,334
222097,326,453,327
222098,324,452,327
222099,331,452,336
222100,340,453,346
222101,348,453,357
222102,357,454,366
222103,360,449,371
222104,367,452,381
222105,371,454,384
222106,380,452,394
222107,385,453,403
222108,385,453,402
222109,379,454,395
222110,372,452,383
222111,360,454,371
222112,355,449,362
222113,349,453,358
222114,343,453,350
222115,338,450,345
222116,330,451,333
222117,324,447,327
222118,324,452,325
222119,331,450,334
222120,338,453,345
222121,347,452,356
222122,355,452,364
222123,360,451,367
222124,366,450,377
222125,371,451,383
222126,378,452,393
222127,385,450,402
222128,385,454,400
222129,379,452,391
222130,372,452,382
222131,362,452,370
222132,354,452,362
222133,350,453,356
222134,342,452,347
222135,338,453,344
222136,330,451,331
222137,324,451,326
222138,322,451,326
222139,331,450,334
222140,336,451,343
222141,348,451,356
222142,354,451,366
222143,358,450,370
222144,365,450,376
222145,369,449,383
222146,377,450,392
222147,384,451,403
222148,385,453,403
222149,378,454,392
222150,371,451,384
222151,362,452,370
222152,355,450,362
222153,350,453,357
222154,343,452,348
222155,339,453,344
222156,330,449,333
222157,325,451,324
222158,324,453,327
222159,331,452,334
222160,337,454,344
222161,346,452,357
222162,354,451,364
222163,359,452,369
222164,363,452,377
222165,370,452,382
222166,378,452,394
222167,384,454,401
222168,386,453,402
222169,380,453,393
222170,373,453,385
222171,363,451,372
222172,356,453,363
222173,350,453,358
222174,343,453,349
222175,340,453,345
222176,331,456,334
222177,326,456,327
222178,324,452,325
222179,329,454,333
222180,338,453,345
222181,347,450,357
222182,356,453,365
222183,359,453,368
222184,367,455,381
222185,370,449,384
222186,379,454,395
222187,385,454,401
222188,386,450,402
222189,381,455,392
222190,374,452,386
222191,365,452,372
222192,356,455,364
222193,351,452,357
222194,345,454,350
222195,341,454,344
222196,330,454,334
222197,326,452,328
222198,324,452,327
222199,332,454,335
222200,337,452,345
222201,347,453,357
222202,354,452,366
222203,360,449,371
222204,368,452,379
222205,369,450,384
222206,379,452,396
222207,384,453,403
222208,387,454,403
222209,381,453,394
222210,372,454,386
222211,364,453,372
222212,356,453,364
222213,348,453,357
222214,345,456,350
222215,341,454,344
222216,332,452,335
222217,326,454,328
222218,324,451,327
222219,330,452,335
222220,338,453,343
222221,348,452,356
222222,354,454,365
222223,360,453,371
222224,365,449,379
222225,369,453,382
222226,377,452,395
222227,384,452,401
222228,387,453,403
222229,380,455,394
222230,373,453,385
222231,362,452,372
222232,355,453,364
222233,351,452,357
222234,345,452,349
222235,338,451,344
222236,331,452,334
222237,325,450,327
222238,325,451,326
222239,330,451,334
222240,338,450,345
222241,346,451,357
222242,353,451,364
222243,358,449,372
222244,365,452,379
222245,370,450,383
222246,379,451,393
222247,384,453,401
222248,386,451,402
222249,379,452,394
222250,372,454,384
222251,362,452,371
222252,354,452,365
222253,349,451,357
222254,344,451,347
222255,339,452,344
222256,330,453,333
222257,325,448,327
222258,323,450,326
222259,330,449,335
222260,336,451,343
222261,347,451,357
222262,354,450,365
222263,358,451,370
222264,365,452,378
222265,369,451,384
222266,378,452,395
222267,384,452,402
222268,386,451,403
222269,379,451,394
222270,373,453,386
222271,364,451,371
222272,356,454,364
222273,352,452,357
222274,344,453,349
222275,340,451,345
222276,331,454,334
222277,327,452,327
222278,324,453,325
222279,332,449,335
222280,338,449,345
222281,348,452,358
222282,355,451,366
222283,361,451,371
222284,364,450,378
222285,369,452,383
222286,377,453,394
222287,384,452,400
222288,385,452,401
222289,379,454,391
222290,374,453,384
222291,361,452,373
222292,355,454,363
222293,350,454,359
222294,343,453,350
222295,339,452,346
222296,331,452,335
222297,326,452,327
222298,324,453,328
222299,331,452,335
222300,338,454,344
222301,348,452,356
222302,355,455,366
222303,359,453,369
222304,367,453,379
222305,370,452,384
222306,378,453,395
222307,384,454,401
222308,387,452,402
222309,378,452,394
222310,373,455,385
222311,361,454,373
222312,356,451,364
222313,350,454,358
222314,344,452,350
222315,341,453,345
222316,331,453,335
222317,326,452,327
222318,324,454,326
222319,330,454,335
222320,339,451,345
222321,348,450,356
222322,353,453,367
222323,359,452,372
222324,367,454,379
222325,370,454,383
222326,379,449,394
222327,384,452,402
222328,388,453,402
222329,380,457,394
222330,373,453,386
222331,363,453,374
222332,358,453,365
222333,351,454,358
222334,344,456,352
222335,342,456,347
222336,333,455,337
222337,328,455,329
222338,326,454,327
222339,331,453,334
222340,338,453,344
222341,347,450,357
222342,353,450,365
222343,358,454,371
222344,366,450,379
222345,369,452,384
222346,377,453,395
222347,385,454,402
222348,385,456,402
222349,382,454,395
222350,375,452,386
222351,363,451,374
222352,357,454,363
222353,350,454,360
222354,343,454,352
222355,340,452,344
222356,330,453,335
222357,325,454,326
222358,325,450,326
222359,329,451,333
222360,335,451,342
222361,346,450,357
222362,350,451,363
222363,358,453,367
222364,363,452,378
222365,368,449,382
222366,378,452,394
222367,383,451,400
222368,387,451,402
222369,380,452,394
222370,372,452,385
222371,363,450,373
222372,357,451,364
222373,349,452,357
222374,345,450,348
222375,338,451,342
222376,329,451,332
222377,324,451,327
222378,323,446,325
222379,328,450,333
222380,334,450,342
222381,344,451,353
222382,353,447,361
222383,358,449,368
222384,362,451,375
222385,367,450,382
222386,377,449,392
222387,382,451,401
222388,385,446,402
222389,379,449,392
222390,371,453,385
222391,360,452,370
222392,354,450,363
222393,348,451,356
222394,343,451,348
222395,339,450,343
222396,330,449,333
222397,325,450,326
222398,322,449,323
222399,327,451,332
222400,333,446,342
222401,346,449,354
222402,351,450,361
222403,357,449,368
222404,365,450,379
222405,367,449,380
222406,376,449,391
222407,383,451,398
222408,384,448,401
222409,380,450,391
222410,372,451,383
222411,363,451,372
222412,354,452,362
222413,348,451,355
222414,342,453,348
222415,337,450,344
222416,330,451,333
222417,324,450,326
222418,322,450,324
222419,327,449,333
222420,335,449,340
222421,345,449,354
222422,353,450,362
222423,356,450,368
222424,365,450,376
222425,367,449,380
222426,376,451,391
222427,384,451,400
222428,385,451,400
222429,380,451,392
222430,373,451,385
222431,362,453,370
222432,355,452,363
222433,351,451,358
222434,342,450,348
222435,341,451,344
222436,332,451,335
222437,326,451,325
222438,323,451,325
222439,328,451,334
222440,335,451,343
222441,346,450,354
222442,351,450,362
222443,358,451,368
222444,363,451,376
222445,367,450,381
222446,377,450,393
222447,382,451,400
222448,386,453,401
222449,379,452,394
222450,373,452,385
222451,361,451,371
222452,355,453,363
222453,350,448,357
222454,344,451,350
222455,340,451,344
222456,331,452,334
222457,325,451,326
222458,323,451,324
222459,330,448,334
222460,335,452,342
222461,346,452,356
222462,353,451,363
222463,357,450,369
222464,364,452,378
222465,367,451,382
222466,376,448,392
222467,382,453,400
222468,386,450,403
222469,380,454,394
222470,374,451,386
222471,361,453,373
222472,354,452,362
222473,352,452,358
222474,345,452,348
222475,340,454,346
222476,332,451,334
222477,325,453,327
222478,323,451,326
222479,329,450,333
222480,335,449,342
222481,345,452,355
222482,352,449,363
222483,358,451,370
222484,364,452,377
222485,368,451,381
222486,375,452,393
222487,384,452,400
222488,385,451,402
222489,380,452,394
222490,373,453,384
222491,363,453,371
222492,356,451,364
222493,351,452,360
222494,343,451,348
222495,340,452,344
222496,331,452,334
222497,326,451,328
222498,322,446,324
222499,328,450,332
222500,335,451,341
222501,345,449,354
222502,350,451,363
222503,358,448,368
222504,364,451,377
222505,366,452,380
222506,376,448,390
222507,382,452,399
222508,385,449,402
222509,379,449,394
222510,372,451,385
222511,363,452,371
222512,356,452,363
222513,351,450,360
222514,342,450,349
222515,338,453,344
222516,330,450,332
222517,326,454,327
222518,324,451,323
222519,328,448,332
222520,334,451,340
222521,345,451,353
222522,351,451,360
222523,357,450,368
222524,363,450,377
222525,367,450,382
222526,376,452,391
222527,383,451,399
222528,386,453,400
222529,380,455,393
222530,373,450,385
222531,364,453,371
222532,355,452,363
222533,350,448,358
222534,343,450,349
222535,340,451,345
222536,331,450,333
222537,326,450,328
222538,323,452,325
222539,326,451,332
222540,335,453,340
222541,345,451,353
222542,352,450,361
222543,357,450,368
222544,365,452,376
222545,368,451,381
222546,376,451,392
222547,384,449,399
222548,385,448,402
222549,379,450,393
222550,374,451,385
222551,363,451,373
222552,355,452,364
222553,352,449,358
222554,344,452,350
222555,339,451,345
222556,332,453,333
222557,325,451,326
222558,323,452,325
222559,328,452,331
222560,336,449,341
222561,345,451,352
222562,353,450,363
222563,357,451,369
222564,363,451,376
222565,367,451,379
222566,376,452,390
222567,382,453,399
222568,385,449,401
222569,381,453,394
222570,374,450,386
222571,363,452,373
222572,354,452,364
222573,349,452,356
222574,344,451,350
222575,340,452,346
222576,332,452,335
222577,325,452,328
222578,324,451,326
222579,328,450,331
222580,337,453,341
222581,344,449,354
222582,351,449,362
222583,358,446,369
222584,363,447,377
222585,368,451,381
222586,376,453,391
222587,382,450,400
222588,386,451,401
222589,380,452,394
222590,373,454,386
222591,363,453,373
222592,357,453,365
222593,350,451,357
222594,343,451,349
222595,341,451,347
222596,332,453,335
222597,327,451,329
222598,323,453,325
222599,329,449,332
222600,335,451,341
222601,346,450,355
222602,351,451,363
222603,356,451,368
222604,364,452,377
222605,367,454,379
222606,375,455,391
222607,382,451,400
222608,385,455,402
222609,380,454,396
222610,374,453,386
222611,364,449,373
222612,357,452,364
222613,351,452,358
222614,345,452,350
222615,341,452,346
222616,334,447,335
222617,328,450,329
222618,323,450,326
222619,329,453,333
222620,334,450,342
222621,344,451,356
222622,349,453,362
222623,360,450,369
222624,364,452,378
222625,368,453,380
222626,378,451,392
222627,383,452,401
222628,387,452,404
222629,381,451,396
222630,374,451,388
222631,365,450,373
222632,359,451,366
222633,351,454,360
222634,344,454,352
222635,342,456,346
222636,333,454,337
222637,328,454,330
222638,325,454,326
222639,330,454,334
222640,335,453,342
222641,345,449,356
222642,352,453,364
222643,359,452,368
222644,366,454,376
222645,369,454,382
222646,377,453,395
222647,383,455,400
222648,388,455,403
222649,382,450,395
222650,374,454,387
222651,366,455,374
222652,357,453,367
222653,352,454,360
222654,346,455,351
222655,341,453,348
222656,334,454,339
222657,328,452,329
222658,323,451,326
222659,330,454,334
222660,336,452,341
222661,346,453,354
222662,353,452,363
222663,359,452,370
222664,364,451,378
222665,366,454,382
222666,377,454,392
222667,383,452,400
222668,386,454,404
222669,381,453,395
222670,375,454,388
222671,366,455,374
222672,359,453,366
222673,351,453,360
222674,345,454,351
222675,341,454,347
222676,334,450,336
222677,329,452,330
222678,325,454,326
222679,327,449,333
222680,336,452,342
222681,345,453,353
222682,352,452,363
222683,358,452,368
222684,366,451,377
222685,369,452,380
222686,376,452,391
222687,383,453,399
222688,386,451,403
222689,381,452,396
222690,374,455,386
222691,365,453,375
222692,357,453,364
222693,352,454,357
222694,345,453,351
222695,341,453,347
222696,333,451,336
222697,327,452,330
222698,325,453,327
222699,329,452,332
222700,335,451,340
222701,347,452,354
222702,351,452,361
222703,357,450,370
222704,364,454,378
222705,368,454,381
222706,377,451,393
222707,383,452,399
222708,387,453,404
222709,382,454,395
222710,374,450,388
222711,365,453,376
222712,357,453,366
222713,352,453,359
222714,346,453,351
222715,342,452,348
222716,334,449,337
222717,327,454,329
222718,324,453,327
222719,327,455,333
222720,335,451,342
222721,345,452,353
222722,353,454,364
222723,357,451,371
222724,366,451,377
222725,367,454,381
222726,377,453,392
222727,381,449,400
222728,388,453,404
222729,384,451,397
222730,376,453,387
222731,366,455,376
222732,358,453,365
222733,351,451,360
222734,346,453,349
222735,343,453,347
222736,334,452,337
222737,328,453,330
222738,324,451,327
222739,328,453,333
222740,336,454,340
222741,345,450,354
222742,352,452,363
222743,360,454,368
222744,366,452,376
222745,368,452,381
222746,376,452,393
222747,383,450,399
222748,387,455,403
222749,382,454,397
222750,376,454,389
222751,366,454,376
222752,359,455,365
222753,351,453,359
222754,346,453,351
222755,342,455,347
222756,335,452,337
222757,328,454,330
222758,323,450,326
222759,328,454,332
222760,336,454,342
222761,344,455,353
222762,353,451,362
222763,358,454,368
222764,364,453,377
222765,370,453,382
222766,377,453,393
222767,383,456,401
222768,387,451,404
222769,383,449,398
222770,375,455,387
222771,367,455,376
222772,359,455,368
222773,352,454,361
222774,347,456,352
222775,343,455,348
222776,335,454,340
222777,330,452,331
222778,325,453,326
222779,329,453,333
222780,336,455,342
222781,345,454,354
222782,353,451,363
222783,359,451,370
222784,364,451,379
222785,370,454,384
222786,377,455,394
222787,384,455,403
222788,387,455,406
222789,384,455,398
222790,375,453,391
222791,366,453,377
222792,359,456,369
222793,354,454,359
222794,347,456,355
222795,343,455,348
222796,336,454,339
222797,330,456,332
222798,327,456,330
222799,330,453,333
222800,336,456,343
222801,346,455,355
222802,354,456,363
222803,359,456,371
222804,366,455,378
222805,371,449,385
222806,379,454,394
222807,385,454,400
222808,389,454,404
222809,385,454,399
222810,377,455,392
222811,368,458,378
222812,360,457,370
222813,353,456,361
222814,347,456,354
222815,344,455,350
222816,337,455,340
222817,328,456,334
222818,327,455,327
222819,329,454,335
222820,337,455,342
222821,346,454,354
222822,354,453,362
222823,359,455,371
222824,365,455,380
222825,371,456,383
222826,377,454,394
222827,383,454,402
222828,388,457,406
222829,388,453,401
222830,379,457,391
222831,368,456,377
222832,360,459,369
222833,354,461,360
222834,347,456,354
222835,344,456,349
222836,335,456,340
222837,329,455,331
222838,325,456,325
222839,330,454,334
222840,336,455,342
222841,344,456,354
222842,351,454,363
222843,361,454,372
222844,366,456,378
222845,368,456,381
222846,377,455,394
222847,384,459,400
222848,389,454,406
222849,385,455,399
222850,377,454,389
222851,368,457,379
222852,360,455,369
222853,354,455,362
222854,348,454,353
222855,345,456,349
222856,336,456,339
222857,331,454,333
222858,323,453,328
222859,329,454,333
222860,337,453,342
222861,345,454,355
222862,353,456,364
222863,360,453,369
222864,365,454,377
222865,371,454,384
222866,376,454,393
222867,384,453,399
222868,387,455,404
222869,382,455,398
222870,374,454,390
222871,367,455,378
222872,360,455,370
222873,352,451,360
222874,346,455,353
222875,343,453,349
222876,335,451,339
222877,329,453,331
222878,325,452,327
222879,329,450,332
222880,335,453,341
222881,343,453,353
222882,353,454,359
222883,359,449,369
222884,364,453,376
222885,367,450,380
222886,377,453,389
222887,382,452,398
222888,385,450,401
222889,383,456,396
222890,376,453,389
222891,366,451,376
222892,360,454,366
222893,352,451,359
222894,346,453,350
222895,341,453,347
222896,335,453,337
222897,330,453,330
222898,323,453,326
222899,327,454,331
222900,335,455,342
222901,344,453,354
222902,352,454,361
222903,359,452,369
222904,364,452,377
222905,370,452,384
222906,376,452,392
222907,384,456,400
222908,387,454,404
222909,384,452,398
222910,378,454,391
222911,367,455,378
222912,359,454,368
222913,353,452,359
222914,347,451,352
222915,342,456,348
222916,336,453,339
222917,329,453,331
222918,324,453,328
222919,329,453,333
222920,335,449,342
222921,344,453,353
222922,352,450,362
222923,361,453,370
222924,366,452,377
222925,368,454,383
222926,377,452,392
222927,381,451,397
222928,388,453,405
222929,384,455,398
222930,375,454,389
222931,364,454,378
222932,358,452,368
222933,352,455,361
222934,348,449,352
222935,341,456,346
222936,336,454,339
222937,330,452,332
222938,324,450,327
222939,327,452,330
222940,334,450,340
222941,344,453,352
222942,352,448,359
222943,358,454,368
222944,363,454,373
222945,369,453,380
222946,376,452,391
222947,382,452,399
222948,387,450,403
222949,383,455,398
222950,376,454,388
222951,367,453,377
222952,359,454,367
222953,353,452,361
222954,347,452,352
222955,342,453,348
222956,335,453,338
222957,327,453,329
222958,324,452,324
222959,328,453,330
222960,333,451,338
222961,344,454,352
222962,351,452,360
222963,358,453,368
222964,364,453,376
222965,368,452,382
222966,373,453,391
222967,380,451,398
222968,387,452,404
222969,385,453,399
222970,378,453,390
222971,368,454,377
222972,359,455,368
222973,354,453,361
222974,348,451,353
222975,344,454,350
222976,337,456,340
222977,330,455,334
222978,325,452,328
222979,327,455,331
222980,335,454,341
222981,343,453,354
222982,353,455,364
222983,359,455,371
222984,362,455,377
222985,370,454,382
222986,377,454,390
222987,383,456,398
222988,387,456,405
222989,385,454,399
222990,378,453,391
222991,367,456,378
222992,359,454,367
222993,352,454,360
222994,347,452,353
222995,343,453,347
222996,337,452,339
222997,330,454,332
222998,323,454,327
222999,328,453,331
223000,333,452,340
223001,342,454,353
223002,351,452,361
223003,357,451,369
223004,362,446,376
223005,366,451,380
223006,373,451,390
223007,382,453,398
223008,386,452,404
223009,382,456,399
223010,376,452,389
223011,367,452,377
223012,359,456,368
223013,351,452,360
223014,346,448,353
223015,341,452,348
223016,336,453,338
223017,328,450,330
223018,325,452,327
223019,326,452,331
223020,333,452,340
223021,343,453,352
223022,352,452,362
223023,361,452,370
223024,364,453,376
223025,370,454,382
223026,373,453,390
223027,379,453,397
223028,387,452,404
223029,382,454,399
223030,378,455,391
223031,368,457,379
223032,362,456,369
223033,354,455,361
223034,349,455,354
223035,345,456,350
223036,338,458,342
223037,331,453,333
223038,324,456,328
223039,328,456,332
223040,336,455,341
223041,344,457,354
223042,354,456,363
223043,360,457,372
223044,366,458,378
223045,371,457,384
223046,379,457,393
223047,386,458,403
223048,391,455,406
223049,388,458,403
223050,379,460,393
223051,371,460,382
223052,364,459,373
223053,357,461,364
223054,353,459,359
223055,347,457,354
223056,341,457,346
223057,333,460,336
223058,327,459,331
223059,330,458,334
223060,338,459,344
223061,346,456,356
223062,354,455,365
223063,363,458,373
223064,368,458,381
223065,372,461,385
223066,380,460,393
223067,386,460,403
223068,389,456,408
223069,388,461,404
223070,381,458,395
223071,374,459,381
223072,364,458,374
223073,357,458,364
223074,351,459,358
223075,347,460,353
223076,340,460,345
223077,333,456,335
223078,327,456,331
223079,330,455,335
223080,337,459,343
223081,347,458,355
223082,355,458,365
223083,362,460,374
223084,366,458,379
223085,372,456,383
223086,378,458,393
223087,384,456,400
223088,390,460,406
223089,388,458,402
223090,380,459,396
223091,371,459,382
223092,364,459,372
223093,356,457,365
223094,351,456,357
223095,346,458,352
223096,340,456,343
223097,332,456,334
223098,327,458,330
223099,328,456,334
223100,337,456,341
223101,346,453,353
223102,351,451,364
223103,359,453,371
223104,363,455,377
223105,369,454,381
223106,377,456,392
223107,381,455,399
223108,387,455,406
223109,385,456,401
223110,379,455,392
223111,369,455,379
223112,361,455,369
223113,354,456,361
223114,349,454,355
223115,343,453,350
223116,337,454,340
223117,330,454,334
223118,326,455,328
223119,328,453,332
223120,334,456,339
223121,343,453,352
223122,352,455,362
223123,358,452,369
223124,362,453,376
223125,369,454,382
223126,374,453,391
223127,381,453,397
223128,387,456,404
223129,385,454,399
223130,378,455,391
223131,368,449,378
223132,360,454,369
223133,354,451,361
223134,348,452,355
223135,342,453,348
223136,335,454,339
223137,328,451,332
223138,325,452,327
223139,326,452,329
223140,334,449,340
223141,342,453,351
223142,351,452,360
223143,357,452,368
223144,361,454,374
223145,369,451,380
223146,373,453,388
223147,380,453,396
223148,386,452,404
223149,383,452,398
223150,378,454,391
223151,367,452,377
223152,360,450,367
223153,352,452,360
223154,346,452,352
223155,343,453,348
223156,338,453,340
223157,330,451,331
223158,323,451,324
223159,325,450,329
223160,333,450,338
223161,342,450,347
223162,347,451,357
223163,355,452,366
223164,361,448,371
223165,366,451,379
223166,371,451,387
223167,379,450,395
223168,385,453,401
223169,384,450,398
223170,378,451,389
223171,367,451,378
223172,358,451,368
223173,351,451,359
223174,346,451,351
223175,341,449,347
223176,334,450,338
223177,328,449,331
223178,322,450,324
223179,323,450,327
223180,331,449,335
223181,340,454,348
223182,348,448,360
223183,355,449,366
223184,360,446,372
223185,366,446,377
223186,370,448,386
223187,377,447,393
223188,385,450,401
223189,381,451,398
223190,376,452,388
223191,366,450,376
223192,358,448,367
223193,351,450,357
223194,345,451,352
223195,339,450,346
223196,334,449,338
223197,328,449,328
223198,321,451,321
223199,324,445,326
223200,332,447,336
223201,339,448,348
223202,347,449,355
223203,356,449,365
223204,360,450,371
223205,366,448,377
223206,371,450,386
223207,378,448,393
223208,383,449,400
223209,380,449,397
223210,373,449,388
223211,366,450,376
223212,357,451,367
223213,350,448,357
223214,347,448,352
223215,340,449,346
223216,335,445,337
223217,328,449,328
223218,322,448,323
223219,323,446,326
223220,330,448,335
223221,337,444,345
223222,347,448,357
223223,354,447,364
223224,359,446,371
223225,364,446,376
223226,369,448,383
223227,376,444,393
223228,383,447,400
223229,379,445,395
223230,373,448,388
223231,365,448,376
223232,356,447,365
223233,349,448,355
223234,344,447,348
223235,338,446,343
223236,333,448,336
223237,327,448,326
223238,318,446,321
223239,322,446,326
223240,328,445,334
223241,335,445,345
223242,343,445,353
223243,350,442,362
223244,356,445,368
223245,361,445,375
223246,367,444,382
223247,374,444,391
223248,380,444,397
223249,379,447,393
223250,372,446,385
223251,364,444,373
223252,355,443,362
223253,348,445,354
223254,345,446,347
223255,338,444,343
223256,332,446,335
223257,323,445,326
223258,318,445,318
223259,321,444,322
223260,328,443,333
223261,337,444,343
223262,346,445,352
223263,350,443,363
223264,355,442,368
223265,363,443,374
223266,366,444,381
223267,376,444,390
223268,380,440,396
223269,379,446,393
223270,371,447,385
223271,363,444,372
223272,354,444,363
223273,346,445,354
223274,341,444,348
223275,337,444,341
223276,332,445,335
223277,323,445,326
223278,318,445,320
223279,320,440,322
223280,328,444,332
223281,337,445,344
223282,345,444,354
223283,352,444,362
223284,356,445,368
223285,362,446,375
223286,368,447,381
223287,376,446,391
223288,383,446,399
223289,379,448,395
223290,372,445,385
223291,366,448,375
223292,358,449,364
223293,350,449,357
223294,345,446,351
223295,339,449,345
223296,334,448,338
223297,326,449,331
223298,321,448,322
223299,322,447,326
223300,330,446,335
223301,337,447,345
223302,348,449,356
223303,353,448,365
223304,360,448,369
223305,365,448,376
223306,369,447,384
223307,377,450,392
223308,384,449,400
223309,383,451,396
223310,376,451,389
223311,367,450,377
223312,359,451,366
223313,352,451,359
223314,346,450,352
223315,341,448,346
223316,336,450,338
223317,327,450,331
223318,321,451,323
223319,323,448,326
223320,330,448,334
223321,339,451,347
223322,347,450,357
223323,356,450,366
223324,360,449,371
223325,366,450,377
223326,370,448,384
223327,378,451,393
223328,384,450,402
223329,383,451,398
223330,375,451,388
223331,366,450,377
223332,358,449,369
223333,350,450,358
223334,345,449,352
223335,340,449,345
223336,335,447,340
223337,327,449,330
223338,321,449,323
223339,324,448,326
223340,328,447,334
223341,338,444,345
223342,345,447,355
223343,353,445,364
223344,358,446,368
223345,361,445,375
223346,368,444,384
223347,375,445,390
223348,381,444,399
223349,379,445,395
223350,371,444,385
223351,363,446,373
223352,356,445,366
223353,348,444,356
223354,343,445,350
223355,337,444,343
223356,333,442,336
223357,323,443,325
223358,320,443,319
223359,320,444,321
223360,326,439,331
223361,333,442,341
223362,341,441,352
223363,349,442,360
223364,353,440,365
223365,359,441,372
223366,365,441,380
223367,371,443,388
223368,378,441,397
223369,377,442,392
223370,370,443,384
223371,362,438,372
223372,354,440,362
223373,345,442,353
223374,339,443,347
223375,334,439,341
223376,329,442,332
223377,319,441,325
223378,315,440,316
223379,316,441,319
223380,324,439,330
223381,333,443,339
223382,342,440,351
223383,348,443,359
223384,352,443,364
223385,359,443,371
223386,363,443,377
223387,373,442,388
223388,379,443,396
223389,379,444,393
223390,373,443,384
223391,364,444,374
223392,354,445,362
223393,348,442,356
223394,344,444,350
223395,337,445,342
223396,334,445,336
223397,326,447,328
223398,317,447,321
223399,319,446,324
223400,327,448,332
223401,337,448,343
223402,346,447,355
223403,354,446,363
223404,358,446,368
223405,363,449,378
223406,368,449,382
223407,376,450,392
223408,383,449,399
223409,381,450,397
223410,375,450,389
223411,366,451,377
223412,359,450,366
223413,351,450,358
223414,346,453,352
223415,342,452,347
223416,336,448,342
223417,329,449,332
223418,323,452,325
223419,325,450,327
223420,330,448,336
223421,340,453,348
223422,349,451,358
223423,355,454,367
223424,359,453,373
223425,366,454,381
223426,372,451,387
223427,381,455,396
223428,386,452,406
223429,385,455,403
223430,381,453,393
223431,372,456,382
223432,361,456,371
223433,355,456,363
223434,351,453,358
223435,346,456,352
223436,341,457,347
223437,333,455,338
223438,326,457,328
223439,327,456,330
223440,335,456,341
223441,343,457,350
223442,353,457,361
223443,359,458,371
223444,362,457,376
223445,369,457,384
223446,375,456,389
223447,384,458,400
223448,391,459,409
223449,389,457,405
223450,383,462,397
223451,376,460,387
223452,366,460,375
223453,359,461,367
223454,355,462,363
223455,349,462,355
223456,345,462,350
223457,339,463,342
223458,332,463,333
223459,333,466,336
223460,339,462,346
223461,348,464,357
223462,356,465,367
223463,365,467,376
223464,370,467,382
223465,377,470,390
223466,382,468,396
223467,391,469,407
223468,398,469,415
223469,397,470,414
223470,390,471,404
223471,383,471,394
223472,373,470,382
223473,366,470,374
223474,362,472,367
223475,355,472,361
223476,351,470,357
223477,343,470,347
223478,336,471,339
223479,337,468,340
223480,343,469,348
223481,350,468,359
223482,360,468,370
223483,365,466,377
223484,371,467,383
223485,376,465,389
223486,381,464,395
223487,390,462,406
223488,395,463,413
223489,395,463,411
223490,385,461,400
223491,378,463,388
223492,368,460,378
223493,361,462,368
223494,354,460,362
223495,348,461,357
223496,343,457,350
223497,335,457,338
223498,329,459,331
223499,328,458,332
223500,336,458,341
223501,342,455,351
223502,353,456,363
223503,359,455,370
223504,363,457,376
223505,369,454,382
223506,373,455,386
223507,381,457,398
223508,387,456,404
223509,386,456,404
223510,380,455,394
223511,374,456,383
223512,363,456,371
223513,354,454,363
223514,349,454,356
223515,344,454,349
223516,340,453,345
223517,331,452,335
223518,326,455,324
223519,327,453,327
223520,333,452,339
223521,340,451,347
223522,350,454,358
223523,357,451,366
223524,361,453,373
223525,366,453,380
223526,372,450,385
223527,380,454,396
223528,385,452,403
223529,385,453,401
223530,379,454,393
223531,371,452,381
223532,362,455,371
223533,354,454,361
223534,350,452,356
223535,344,451,349
223536,341,453,344
223537,330,454,335
223538,325,453,327
223539,324,453,328
223540,332,451,337
223541,340,454,348
223542,349,453,358
223543,357,453,367
223544,361,453,373
223545,367,455,380
223546,372,454,387
223547,381,455,398
223548,388,454,406
223549,389,456,403
223550,380,455,393
223551,375,456,384
223552,363,457,373
223553,357,458,365
223554,352,457,358
223555,346,456,352
223556,344,457,347
223557,335,460,339
223558,328,456,330
223559,330,458,331
223560,336,459,343
223561,344,457,351
223562,354,458,363
223563,362,460,373
223564,365,461,377
223565,372,462,384
223566,377,462,391
223567,385,461,402
223568,393,462,409
223569,390,461,408
223570,385,461,398
223571,378,461,389
223572,368,465,378
223573,364,462,370
223574,357,464,364
223575,352,467,358
223576,347,464,351
223577,340,465,341
223578,332,464,334
223579,334,465,336
223580,339,465,347
223581,349,465,356
223582,358,466,366
223583,366,463,375
223584,368,465,381
223585,372,465,389
223586,381,465,395
223587,387,465,405
223588,395,467,414
223589,396,467,411
223590,387,468,401
223591,380,466,393
223592,370,465,380
223593,364,466,371
223594,359,468,366
223595,352,465,358
223596,349,467,355
223597,342,468,344
223598,335,466,336
223599,334,467,338
223600,342,466,348
223601,350,464,358
223602,358,467,369
223603,366,468,378
223604,372,466,384
223605,379,469,391
223606,381,469,395
223607,390,470,408
223608,398,470,415
223609,397,465,415
223610,390,467,404
223611,383,469,396
223612,374,470,383
223613,365,470,373
223614,362,469,371
223615,356,471,361
223616,351,469,357
223617,343,470,346
223618,336,469,339
223619,336,470,339
223620,344,467,349
223621,352,469,358
223622,361,468,370
223623,367,468,379
223624,373,468,384
223625,378,469,394
223626,382,469,397
223627,391,468,407
223628,398,469,415
223629,398,469,414
223630,390,470,404
223631,384,468,394
223632,374,470,383
223633,367,469,375
223634,360,469,369
223635,354,468,363
223636,351,469,357
223637,342,468,345
223638,336,468,339
223639,336,469,339
223640,342,468,349
223641,350,465,357
223642,359,468,367
223643,366,466,376
223644,371,466,383
223645,378,467,391
223646,382,468,394
223647,388,468,407
223648,395,470,414
223649,396,468,411
223650,389,469,404
223651,381,468,394
223652,371,469,382
223653,365,466,373
223654,359,466,366
223655,353,470,360
223656,349,467,356
223657,341,467,344
223658,333,467,337
223659,335,465,338
223660,341,466,348
223661,349,467,356
223662,358,469,369
223663,364,465,377
223664,370,466,383
223665,375,465,390
223666,380,467,395
223667,390,470,405
223668,396,468,414
223669,396,466,412
223670,390,465,403
223671,382,468,394
223672,370,469,381
223673,365,466,372
223674,360,466,367
223675,353,468,359
223676,350,469,354
223677,342,466,345
223678,336,467,336
223679,334,466,337
223680,342,468,346
223681,347,468,354
223682,357,467,367
223683,364,467,376
223684,368,465,382
223685,377,468,389
223686,380,466,391
223687,389,468,408
223688,395,467,413
223689,395,468,412
223690,388,464,403
223691,382,467,394
223692,371,467,381
223693,364,466,372
223694,358,465,366
223695,352,464,359
223696,348,463,353
223697,339,467,343
223698,334,466,335
223699,333,465,337
223700,342,463,346
223701,347,466,355
223702,357,466,365
223703,364,465,375
223704,369,463,381
223705,375,463,387
223706,379,465,392
223707,388,464,404
223708,393,463,412
223709,393,463,411
223710,386,465,401
223711,381,464,393
223712,370,462,379
223713,364,463,371
223714,359,464,365
223715,353,463,358
223716,347,462,353
223717,340,463,342
223718,332,464,334
223719,331,463,334
223720,339,462,344
223721,346,463,353
223722,355,462,365
223723,362,462,374
223724,368,462,379
223725,374,461,388
223726,379,461,392
223727,386,463,404
223728,393,464,409
223729,393,461,409
223730,387,462,401
223731,379,462,391
223732,370,464,378
223733,361,463,370
223734,357,461,364
223735,351,463,357
223736,347,463,351
223737,336,458,341
223738,331,460,333
223739,331,461,332
223740,337,459,343
223741,343,461,350
223742,354,458,365
223743,361,460,373
223744,365,461,376
223745,372,460,385
223746,375,459,390
223747,384,458,401
223748,391,460,408
223749,391,460,409
223750,384,460,397
223751,376,458,389
223752,366,458,377
223753,360,461,366
223754,354,462,362
223755,348,458,355
223756,343,458,350
223757,335,455,338
223758,330,456,330
223759,330,457,332
223760,335,460,340
223761,342,456,349
223762,352,457,360
223763,359,455,370
223764,362,456,374
223765,370,455,384
223766,374,455,389
223767,382,455,398
223768,388,454,405
223769,390,456,403
223770,382,456,396
223771,374,457,386
223772,364,455,373
223773,355,452,366
223774,352,457,360
223775,347,457,351
223776,342,455,347
223777,333,454,338
223778,329,456,330
223779,327,456,329
223780,333,457,339
223781,340,458,347
223782,350,456,359
223783,357,456,367
223784,361,456,374
223785,368,456,380
223786,372,456,385
223787,381,455,397
223788,387,457,405
223789,387,453,406
223790,381,453,396
223791,376,457,385
223792,365,458,373
223793,358,458,367
223794,352,457,359
223795,347,457,351
223796,342,455,346
223797,333,457,335
223798,328,456,328
223799,328,454,327
223800,333,457,338
223801,340,455,348
223802,351,458,360
223803,355,458,368
223804,361,456,373
223805,369,457,382
223806,371,457,388
223807,380,456,396
223808,389,458,405
223809,389,459,405
223810,383,458,397
223811,376,457,388
223812,366,459,374
223813,359,458,368
223814,355,459,360
223815,347,456,355
223816,345,459,350
223817,336,457,339
223818,330,459,332
223819,330,458,332
223820,334,457,340
223821,341,458,349
223822,351,458,361
223823,358,460,370
223824,364,459,374
223825,371,459,384
223826,374,460,387
223827,384,459,400
223828,387,460,407
223829,389,460,407
223830,384,460,398
223831,379,459,390
223832,369,460,377
223833,359,461,369
223834,356,463,363
223835,349,459,354
223836,346,460,350
223837,337,461,340
223838,329,459,332
223839,328,457,330
223840,334,460,341
223841,341,459,348
223842,352,462,361
223843,356,459,370
223844,364,461,376
223845,371,460,383
223846,374,460,387
223847,383,459,400
223848,389,460,406
223849,391,461,406
223850,384,461,399
223851,378,461,389
223852,367,461,378
223853,360,460,368
223854,356,461,366
223855,349,462,356
223856,344,458,351
223857,337,458,339
223858,330,460,332
223859,328,460,332
223860,336,459,341
223861,343,455,348
223862,352,458,362
223863,360,460,369
223864,363,454,375
223865,372,458,383
223866,373,458,388
223867,382,459,397
223868,388,457,407
223869,391,458,408
223870,383,459,398
223871,376,458,389
223872,367,458,376
223873,359,459,368
223874,354,458,361
223875,349,457,355
223876,344,459,350
223877,336,458,339
223878,330,459,331
223879,328,460,332
223880,334,457,340
223881,341,458,348
223882,351,460,362
223883,360,458,370
223884,363,458,376
223885,371,461,383
223886,374,461,389
223887,382,459,399
223888,390,460,406
223889,391,460,407
223890,384,461,399
223891,379,459,390
223892,367,458,378
223893,360,459,369
223894,356,461,363
223895,349,460,356
223896,346,462,350
223897,337,459,340
223898,331,460,333
223899,330,460,333
223900,334,460,340
223901,343,459,349
223902,353,460,362
223903,359,460,371
223904,364,460,377
223905,372,459,384
223906,376,461,389
223907,384,461,401
223908,391,457,409
223909,392,462,410
223910,386,462,401
223911,381,463,392
223912,369,463,379
223913,361,462,370
223914,358,462,365
223915,351,464,356
223916,348,461,353
223917,339,460,341
223918,332,462,335
223919,332,462,334
223920,339,463,343
223921,345,465,351
223922,356,462,365
223923,362,464,373
223924,367,463,379
223925,374,464,387
223926,378,463,392
223927,386,461,402
223928,394,464,410
223929,395,465,411
223930,389,464,401
223931,382,467,394
223932,369,467,380
223933,364,464,373
223934,359,466,367
223935,352,464,359
223936,350,464,354
223937,340,465,344
223938,335,467,337
223939,334,464,337
223940,340,464,345
223941,346,466,354
223942,357,466,367
223943,362,465,374
223944,368,465,379
223945,373,465,388
223946,378,464,393
223947,387,465,404
223948,394,465,410
223949,393,466,412
223950,390,466,402
223951,380,467,394
223952,371,465,380
223953,365,465,371
223954,360,462,365
223955,353,465,358
223956,349,464,354
223957,341,466,344
223958,334,465,336
223959,333,465,335
223960,339,465,342
223961,345,466,352
223962,355,463,365
223963,362,464,372
223964,367,462,380
223965,374,467,387
223966,377,464,391
223967,387,466,403
223968,391,464,411
223969,394,464,412
223970,388,465,402
223971,382,464,395
223972,369,464,383
223973,364,464,372
223974,358,465,367
223975,353,465,359
223976,349,465,353
223977,340,463,343
223978,334,464,337
223979,333,462,335
223980,337,464,343
223981,345,465,349
223982,353,462,363
223983,361,465,372
223984,367,462,379
223985,374,463,386
223986,377,461,392
223987,385,463,403
223988,391,463,408
223989,394,462,411
223990,389,461,402
223991,381,462,392
223992,369,462,379
223993,362,463,371
223994,358,460,364
223995,351,462,357
223996,346,460,351
223997,337,461,340
223998,332,460,333
223999,328,458,331
224000,335,460,339
224001,343,455,348
224002,351,458,360
224003,359,459,368
224004,362,459,375
224005,369,454,382
224006,372,455,385
224007,381,451,396
224008,386,455,404
224009,389,457,404
224010,382,455,396
224011,377,454,387
224012,365,456,375
224013,358,453,366
224014,353,456,359
224015,346,456,352
224016,342,454,347
224017,333,454,335
224018,328,453,330
224019,325,449,328
224020,330,450,335
224021,338,452,342
224022,346,453,356
224023,355,450,363
224024,357,452,369
224025,365,453,378
224026,369,450,381
224027,379,454,393
224028,384,454,401
224029,387,451,403
224030,381,453,395
224031,374,451,386
224032,362,453,373
224033,357,452,365
224034,351,453,357
224035,344,456,350
224036,341,452,347
224037,333,451,336
224038,327,455,328
224039,325,454,327
224040,329,452,335
224041,338,454,345
224042,350,453,358
224043,354,454,365
224044,360,454,372
224045,365,454,380
224046,370,450,384
224047,379,454,395
224048,384,453,400
224049,387,454,404
224050,382,453,394
224051,375,454,388
224052,363,453,373
224053,358,454,365
224054,353,455,360
224055,346,456,351
224056,342,453,347
224057,334,452,336
224058,328,455,329
224059,325,454,326
224060,331,454,335
224061,337,452,344
224062,347,450,357
224063,354,447,365
224064,358,452,370
224065,365,452,378
224066,368,450,382
224067,377,449,393
224068,384,449,399
224069,386,449,402
224070,379,450,393
224071,371,449,384
224072,360,447,369
224073,354,448,360
224074,347,447,354
224075,341,446,346
224076,335,444,339
224077,327,446,331
224078,322,446,322
224079,318,443,322
224080,324,443,328
224081,330,442,337
224082,339,439,350
224083,346,440,357
224084,351,440,362
224085,357,435,370
224086,361,438,373
224087,369,440,383
224088,374,438,392
224089,375,437,391
224090,368,435,382
224091,361,434,372
224092,350,432,359
224093,343,433,349
224094,336,432,343
224095,330,431,334
224096,326,429,329
224097,317,430,320
224098,312,430,312
224099,308,429,309
224100,317,430,318
224101,321,427,326
224102,330,427,339
224103,337,429,346
224104,340,427,352
224105,348,427,359
224106,351,428,363
224107,360,428,374
224108,365,429,382
224109,368,429,385
224110,364,429,377
224111,357,428,367
224112,346,429,354
224113,340,430,345
224114,333,427,340
224115,327,430,331
224116,322,426,328
224117,316,427,317
224118,308,427,309
224119,306,426,306
224120,312,427,316
224121,320,426,325
224122,328,426,337
224123,334,425,345
224124,341,424,351
224125,346,427,360
224126,351,426,364
224127,359,425,375
224128,365,425,381
224129,367,427,383
224130,361,426,376
224131,355,426,367
224132,345,427,353
224133,337,427,346
224134,333,426,339
224135,326,429,332
224136,323,427,328
224137,315,427,317
224138,308,427,311
224139,305,428,307
224140,312,429,316
224141,317,427,324
224142,329,428,337
224143,336,427,345
224144,341,427,351
224145,348,424,358
224146,351,423,363
224147,360,427,374
224148,365,427,380
224149,368,430,384
224150,364,428,377
224151,355,428,366
224152,346,429,353
224153,338,428,345
224154,333,425,340
224155,327,427,331
224156,322,427,327
224157,317,426,318
224158,308,423,310
224159,306,426,307
224160,311,428,317
224161,318,429,324
224162,329,424,337
224163,335,428,344
224164,341,427,352
224165,350,428,360
224166,352,430,365
224167,360,429,376
224168,367,429,383
224169,369,427,387
224170,364,431,378
224171,360,432,370
224172,347,430,358
224173,340,433,350
224174,335,432,342
224175,330,431,334
224176,328,435,331
224177,320,435,323
224178,313,435,316
224179,312,436,312
224180,317,435,323
224181,324,434,330
224182,336,436,342
224183,341,439,352
224184,347,435,357
224185,354,438,367
224186,357,438,371
224187,366,441,382
224188,371,439,390
224189,377,438,391
224190,371,441,385
224191,364,440,378
224192,354,443,363
224193,349,442,357
224194,343,442,349
224195,338,443,342
224196,334,444,339
224197,326,442,328
224198,320,443,320
224199,317,444,320
224200,323,441,326
224201,330,443,337
224202,340,443,350
224203,347,446,358
224204,353,443,364
224205,359,445,373
224206,364,446,378
224207,372,445,389
224208,380,445,395
224209,383,448,400
224210,378,450,393
224211,371,451,384
224212,361,451,371
224213,355,453,364
224214,350,452,357
224215,344,451,350
224216,341,453,347
224217,332,453,335
224218,328,456,329
224219,324,456,327
224220,331,456,335
224221,338,454,346
224222,350,455,357
224223,355,459,366
224224,362,459,373
224225,369,462,382
224226,374,460,387
224227,383,461,397
224228,390,463,407
224229,394,463,411
224230,389,466,402
224231,382,465,394
224232,372,465,382
224233,365,462,375
224234,360,468,367
224235,354,470,361
224236,350,468,358
224237,344,468,347
224238,339,467,340
224239,335,471,338
224240,341,471,346
224241,348,470,354
224242,357,471,368
224243,366,473,376
224244,372,472,383
224245,377,473,391
224246,383,473,396
224247,391,474,406
224248,397,475,415
224249,402,475,418
224250,395,475,411
224251,389,477,402
224252,379,478,391
224253,373,478,382
224254,368,479,377
224255,360,476,370
224256,359,478,365
224257,351,479,353
224258,343,477,347
224259,341,480,345
224260,347,480,351
224261,355,481,362
224262,364,480,375
224263,372,481,384
224264,378,480,389
224265,385,482,399
224266,388,484,403
224267,397,481,416
224268,404,479,420
224269,407,483,424
224270,402,485,418
224271,396,486,409
224272,385,484,395
224273,380,486,388
224274,372,483,382
224275,367,485,373
224276,363,486,369
224277,355,485,359
224278,350,485,352
224279,347,485,350
224280,352,484,358
224281,359,485,366
224282,368,486,379
224283,375,487,388
224284,379,488,394
224285,389,488,402
224286,393,487,407
224287,400,486,418
224288,407,487,426
224289,410,486,428
224290,406,486,421
224291,399,489,414
224292,389,489,396
224293,382,488,391
224294,376,488,384
224295,370,488,378
224296,366,490,372
224297,359,489,363
224298,352,488,357
224299,348,489,352
224300,353,489,359
224301,362,488,370
224302,370,490,380
224303,377,492,389
224304,384,489,398
224305,389,488,403
224306,394,489,408
224307,401,491,419
224308,409,490,428
224309,413,489,429
224310,410,491,425
224311,401,489,416
224312,391,489,402
224313,385,490,395
224314,379,491,386
224315,372,491,378
224316,368,491,374
224317,358,489,363
224318,353,492,357
224319,350,490,353
224320,354,491,360
224321,362,490,369
224322,371,490,381
224323,377,491,389
224324,384,488,397
224325,392,490,406
224326,394,491,409
224327,405,492,421
224328,408,490,427
224329,413,491,430
224330,409,490,425
224331,401,490,414
224332,392,490,403
224333,385,491,394
224334,379,490,387
224335,371,492,379
224336,368,491,373
224337,360,490,365
224338,353,486,358
224339,350,490,354
224340,355,489,361
224341,360,489,368
224342,371,489,381
224343,378,491,388
224344,383,489,397
224345,391,488,405
224346,395,489,410
224347,404,490,420
224348,409,491,429
224349,413,488,432
224350,409,488,424
224351,401,487,416
224352,392,490,402
224353,385,487,394
224354,377,489,387
224355,371,489,378
224356,368,490,374
224357,360,490,365
224358,353,492,357
224359,350,488,353
224360,354,487,359
224361,362,486,367
224362,370,486,381
224363,377,486,388
224364,384,488,398
224365,389,489,404
224366,393,488,407
224367,401,489,418
224368,408,488,425
224369,410,488,429
224370,408,488,423
224371,400,488,414
224372,388,487,401
224373,384,488,393
224374,378,487,386
224375,371,488,378
224376,367,486,373
224377,358,486,361
224378,351,484,354
224379,348,488,351
224380,351,486,357
224381,359,485,366
224382,368,487,379
224383,375,485,387
224384,383,481,392
224385,388,486,401
224386,392,484,407
224387,400,489,416
224388,407,485,423
224389,409,483,427
224390,407,485,422
224391,397,486,412
224392,389,486,399
224393,381,485,390
224394,375,486,383
224395,369,482,375
224396,365,484,371
224397,358,483,361
224398,351,485,352
224399,346,486,348
224400,351,485,355
224401,355,483,364
224402,368,483,377
224403,374,484,385
224404,380,484,393
224405,385,480,401
224406,390,483,404
224407,398,483,415
224408,405,485,421
224409,408,481,425
224410,403,483,419
224411,394,483,410
224412,385,483,397
224413,378,483,389
224414,371,480,381
224415,366,482,373
224416,362,482,369
224417,355,481,359
224418,348,480,352
224419,344,482,346
224420,348,481,353
224421,353,481,361
224422,364,480,373
224423,372,483,383
224424,378,481,389
224425,386,481,398
224426,389,481,404
224427,395,481,411
224428,403,480,420
224429,406,480,425
224430,401,481,417
224431,394,479,408
224432,384,476,395
224433,378,480,386
224434,372,478,379
224435,364,478,370
224436,361,478,368
224437,352,478,356
224438,347,477,350
224439,343,475,345
224440,347,478,352
224441,354,478,360
224442,362,479,373
224443,367,477,382
224444,375,479,387
224445,382,478,395
224446,385,477,400
224447,392,477,409
224448,399,475,418
224449,404,477,422
224450,399,478,414
224451,392,476,406
224452,383,477,393
224453,375,474,383
224454,368,477,377
224455,362,478,369
224456,358,476,364
224457,350,477,354
224458,345,476,348
224459,340,474,343
224460,344,474,348
224461,352,475,357
224462,361,475,370
224463,368,476,379
224464,374,475,386
224465,379,472,394
224466,384,473,397
224467,391,476,407
224468,396,473,416
224469,401,474,420
224470,397,472,411
224471,391,474,403
224472,381,474,389
224473,373,473,382
224474,365,473,373
224475,361,471,367
224476,356,474,359
224477,348,473,351
224478,342,474,345
224479,338,472,340
224480,342,472,345
224481,350,472,355
224482,358,471,368
224483,365,471,376
224484,370,472,383
224485,377,471,389
224486,382,469,396
224487,388,470,403
224488,396,469,412
224489,399,467,417
224490,396,469,410
224491,388,468,399
224492,378,467,387
224493,369,469,379
224494,364,469,371
224495,357,471,363
224496,354,469,361
224497,347,467,352
224498,340,465,343
224499,336,467,341
224500,340,469,346
224501,346,469,355
224502,358,467,366
224503,363,467,374
224504,369,469,382
224505,376,467,389
224506,379,469,392
224507,388,466,403
224508,394,469,411
224509,398,468,414
224510,394,469,408
224511,386,467,400
224512,375,470,386
224513,369,472,378
224514,361,468,370
224515,357,468,364
224516,353,471,359
224517,344,471,349
224518,340,469,344
224519,336,469,339
224520,340,468,345
224521,347,470,353
224522,357,465,365
224523,363,466,373
224524,368,468,381
224525,375,469,389
224526,379,468,392
224527,385,469,402
224528,392,467,409
224529,396,469,414
224530,392,468,407
224531,386,467,399
224532,375,466,386
224533,369,467,377
224534,361,466,370
224535,356,469,364
224536,352,463,359
224537,343,465,349
224538,339,464,340
224539,335,464,339
224540,339,464,344
224541,344,464,352
224542,355,464,361
224543,360,463,374
224544,367,461,379
224545,373,462,386
224546,377,463,392
224547,383,465,401
224548,389,462,409
224549,394,461,411
224550,390,463,406
224551,384,458,396
224552,373,462,384
224553,367,461,375
224554,361,459,366
224555,353,461,360
224556,349,461,357
224557,342,458,348
224558,335,461,340
224559,330,460,336
224560,336,461,340
224561,344,459,350
224562,350,462,362
224563,358,458,369
224564,365,459,376
224565,369,460,383
224566,373,458,389
224567,380,457,397
224568,385,458,403
224569,386,458,406
224570,383,458,399
224571,376,457,392
224572,368,457,380
224573,360,460,372
224574,356,456,365
224575,350,455,358
224576,347,456,354
224577,340,458,344
224578,334,459,338
224579,332,457,335
224580,334,457,341
224581,341,460,348
224582,349,459,359
224583,357,457,368
224584,362,460,375
224585,367,459,382
224586,370,461,386
224587,378,459,395
224588,385,457,401
224589,389,456,405
224590,387,458,399
224591,380,458,392
224592,368,461,381
224593,364,460,371
224594,356,459,366
224595,353,458,359
224596,348,458,356
224597,344,456,347
224598,337,460,339
224599,333,459,333
224600,336,459,340
224601,343,463,348
224602,349,459,361
224603,358,461,368
224604,364,459,374
224605,368,460,381
224606,371,459,384
224607,377,460,393
224608,383,459,397
224609,387,463,403
224610,386,460,398
224611,378,461,388
224612,370,461,378
224613,363,458,371
224614,357,461,365
224615,353,459,358
224616,348,461,356
224617,343,460,347
224618,337,460,340
224619,334,462,336
224620,334,461,342
224621,343,459,351
224622,352,460,360
224623,357,464,367
224624,364,460,375
224625,369,462,380
224626,371,460,385
224627,376,461,392
224628,382,461,396
224629,386,461,402
224630,384,460,398
224631,377,461,390
224632,368,459,379
224633,363,459,372
224634,357,463,366
224635,352,460,360
224636,349,458,355
224637,342,460,348
224638,337,463,341
224639,334,460,337
224640,336,462,340
224641,341,460,350
224642,352,459,359
224643,357,461,368
224644,364,457,374
224645,368,462,380
224646,372,464,384
224647,376,462,393
224648,383,462,399
224649,387,460,403
224650,385,462,398
224651,377,461,390
224652,369,460,379
224653,363,462,372
224654,357,462,366
224655,352,461,359
224656,348,461,355
224657,344,460,347
224658,338,457,342
224659,334,462,336
224660,335,462,342
224661,343,461,351
224662,352,461,362
224663,359,461,368
224664,363,460,376
224665,368,461,381
224666,369,460,384
224667,378,460,391
224668,383,460,398
224669,387,459,402
224670,385,458,398
224671,376,462,389
224672,369,459,379
224673,363,460,371
224674,357,458,366
224675,354,458,360
224676,350,458,355
224677,345,463,349
224678,337,460,341
224679,334,462,337
224680,336,460,341
224681,342,461,350
224682,348,461,360
224683,356,459,367
224684,362,460,374
224685,369,463,380
224686,372,461,385
224687,376,462,391
224688,383,461,397
224689,387,461,404
224690,383,460,398
224691,379,462,390
224692,372,462,380
224693,364,462,373
224694,359,462,365
224695,354,460,361
224696,349,462,356
224697,344,461,350
224698,339,461,341
224699,335,461,339
224700,337,462,342
224701,342,461,351
224702,351,462,360
224703,357,460,367
224704,363,461,375
224705,368,460,381
224706,372,461,385
224707,378,460,392
224708,384,462,399
224709,387,460,402
224710,383,460,399
224711,378,462,389
224712,371,461,380
224713,364,462,372
224714,356,462,365
224715,353,458,360
224716,349,462,355
224717,343,460,349
224718,338,461,342
224719,333,460,337
224720,338,460,343
224721,344,461,350
224722,350,461,359
224723,357,461,367
224724,363,457,374
224725,369,461,379
224726,371,461,382
224727,377,460,392
224728,382,460,398
224729,387,460,401
224730,385,459,398
224731,379,460,389
224732,370,458,379
224733,364,461,373
224734,358,461,366
224735,353,460,359
224736,350,460,356
224737,344,459,349
224738,338,461,341
224739,332,459,336
224740,337,460,340
224741,343,460,349
224742,351,460,358
224743,357,460,366
224744,363,461,375
224745,368,459,380
224746,371,456,383
224747,377,458,390
224748,382,460,397
224749,387,460,401
224750,384,458,396
224751,378,459,387
224752,368,460,378
224753,361,458,370
224754,356,460,365
224755,352,459,360
224756,348,457,356
224757,343,457,349
224758,337,458,341
224759,334,460,338
224760,335,458,341
224761,343,456,348
224762,349,459,359
224763,357,457,366
224764,362,460,375
224765,367,460,379
224766,369,460,383
224767,378,460,390
224768,382,458,397
224769,387,461,401
224770,384,459,398
224771,377,460,390
224772,370,459,380
224773,363,461,371
224774,357,460,362
224775,353,460,361
224776,349,456,356
224777,343,459,349
224778,338,459,341
224779,333,459,338
224780,336,458,340
224781,343,460,348
224782,350,459,358
224783,356,458,367
224784,361,458,373
224785,368,460,379
224786,371,459,383
224787,375,457,390
224788,382,457,396
224789,385,460,402
224790,383,460,397
224791,377,459,389
224792,369,460,379
224793,362,458,371
224794,356,460,365
224795,352,459,360
224796,349,458,355
224797,343,460,348
224798,338,460,341
224799,334,459,335
224800,337,460,341
224801,343,459,349
224802,350,460,358
224803,356,461,366
224804,361,460,374
224805,366,458,380
224806,372,459,383
224807,377,458,389
224808,382,459,397
224809,386,460,401
224810,383,459,398
224811,378,461,390
224812,369,456,378
224813,363,459,371
224814,357,459,365
224815,352,460,358
224816,349,456,354
224817,344,461,346
224818,339,458,341
224819,332,458,337
224820,333,457,340
224821,342,459,349
224822,350,460,357
224823,357,456,365
224824,362,458,373
224825,365,459,379
224826,370,455,382
224827,376,460,388
224828,381,458,396
224829,388,456,399
224830,385,458,397
224831,377,459,388
224832,369,463,379
224833,362,458,370
224834,355,459,364
224835,351,457,358
224836,348,459,354
224837,342,458,346
224838,336,458,340
224839,332,455,335
224840,333,459,340
224841,341,455,349
224842,348,453,355
224843,355,455,364
224844,360,457,371
224845,364,457,376
224846,368,455,380
224847,373,458,388
224848,380,455,396
224849,384,454,399
224850,382,457,396
224851,375,458,387
224852,368,456,377
224853,361,456,371
224854,354,455,361
224855,350,455,358
224856,345,455,351
224857,341,454,345
224858,335,454,337
224859,332,451,334
224860,333,455,338
224861,337,455,346
224862,348,452,354
224863,353,453,362
224864,357,452,369
224865,361,450,375
224866,366,452,379
224867,370,451,384
224868,376,447,393
224869,380,451,396
224870,379,448,393
224871,372,451,383
224872,363,450,373
224873,358,447,365
224874,350,449,359
224875,347,447,352
224876,341,448,346
224877,337,446,339
224878,331,450,333
224879,326,448,329
224880,329,447,333
224881,334,446,341
224882,341,446,350
224883,348,445,358
224884,351,447,364
224885,356,444,368
224886,362,445,373
224887,367,446,380
224888,372,445,386
224889,377,444,392
224890,375,444,387
224891,367,442,379
224892,357,442,369
224893,350,440,359
224894,345,440,351
224895,340,442,347
224896,336,443,343
224897,331,441,334
224898,324,438,329
224899,318,438,321
224900,318,436,323
224901,326,434,331
224902,334,435,342
224903,340,435,350
224904,346,430,357
224905,350,431,360
224906,352,432,365
224907,357,431,369
224908,363,431,377
224909,367,434,381
224910,363,430,377
224911,355,429,367
224912,350,429,359
224913,341,426,349
224914,335,425,340
224915,330,425,334
224916,325,426,332
224917,320,425,324
224918,312,425,317
224919,309,423,311
224920,311,424,314
224921,317,422,323
224922,324,421,331
224923,332,421,339
224924,335,422,346
224925,340,421,352
224926,343,419,354
224927,348,419,361
224928,354,421,370
224929,358,418,373
224930,356,421,369
224931,350,419,360
224932,342,418,348
224933,335,422,339
224934,327,417,335
224935,323,419,329
224936,319,416,323
224937,315,418,319
224938,309,417,312
224939,305,418,306
224940,305,417,310
224941,313,416,318
224942,319,417,327
224943,328,415,337
224944,333,416,342
224945,337,418,347
224946,341,416,352
224947,346,417,357
224948,352,416,366
224949,355,417,371
224950,353,413,365
224951,348,414,357
224952,340,414,347
224953,332,414,339
224954,328,416,332
224955,323,415,327
224956,318,417,321
224957,313,413,317
224958,308,415,310
224959,302,414,303
224960,305,415,308
224961,311,414,318
224962,319,413,327
224963,326,416,334
224964,330,413,342
224965,334,415,345
224966,337,418,350
224967,344,412,356
224968,349,412,364
224969,354,414,368
224970,351,413,365
224971,345,413,357
224972,337,411,346
224973,330,408,337
224974,324,412,329
224975,320,409,325
224976,317,411,320
224977,307,412,313
224978,304,410,306
224979,300,408,300
224980,300,410,303
224981,307,405,311
224982,313,408,322
224983,321,408,328
224984,325,407,336
224985,328,405,340
224986,333,406,345
224987,338,405,350
224988,343,405,357
224989,348,404,361
224990,346,405,359
224991,340,408,348
224992,332,406,340
224993,325,407,332
224994,321,406,325
224995,315,407,320
224996,311,404,315
224997,307,407,310
224998,301,406,303
224999,295,405,299
225000,298,406,300
225001,305,404,309
225002,312,404,320
225003,318,405,326
225004,324,404,333
225005,327,403,338
225006,333,405,342
225007,336,406,351
225008,343,404,357
225009,349,405,361
225010,348,406,358
225011,340,406,349
225012,331,404,340
225013,323,403,331
225014,318,401,323
225015,314,405,319
225016,311,403,315
225017,304,402,306
225018,300,401,300
225019,294,397,295
225020,296,402,298
225021,301,402,306
225022,307,400,315
225023,315,401,324
225024,320,400,330
225025,325,401,336
225026,329,400,340
225027,333,400,346
225028,339,400,353
225029,345,397,357
225030,342,400,353
225031,335,399,345
225032,328,399,337
225033,320,399,327
225034,314,401,320
225035,310,401,316
225036,307,400,311
225037,301,396,305
225038,296,401,299
225039,293,401,294
225040,293,401,297
225041,301,402,306
225042,309,401,315
225043,315,404,323
225044,321,402,332
225045,326,402,337
225046,330,402,340
225047,336,403,348
225048,341,401,355
225049,347,403,361
225050,347,404,359
225051,339,404,350
225052,333,404,340
225053,324,407,332
225054,320,406,325
225055,315,405,321
225056,311,407,316
225057,307,405,310
225058,302,408,301
225059,296,404,298
225060,299,406,302
225061,305,404,309
225062,312,407,318
225063,319,406,327
225064,325,407,335
225065,329,407,339
225066,332,407,344
225067,339,408,351
225068,345,407,358
225069,349,408,363
225070,349,405,359
225071,341,407,353
225072,335,407,344
225073,326,408,334
225074,321,409,326
225075,318,406,321
225076,312,408,318
225077,308,407,310
225078,303,408,306
225079,297,408,302
225080,300,408,304
225081,307,408,310
225082,314,408,320
225083,322,408,329
225084,327,410,336
225085,331,409,341
225086,335,411,347
225087,341,412,353
225088,348,411,361
225089,353,414,367
225090,353,415,365
225091,345,412,358
225092,338,416,348
225093,332,417,340
225094,326,417,334
225095,323,418,329
225096,319,419,324
225097,316,420,319
225098,309,419,312
225099,304,420,308
225100,308,420,312
225101,314,422,320
225102,322,420,330
225103,329,420,339
225104,335,422,345
225105,339,423,353
225106,346,424,357
225107,348,424,362
225108,354,426,370
225109,362,425,376
225110,360,427,374
225111,354,426,366
225112,347,426,355
225113,340,423,348
225114,334,428,341
225115,332,427,336
225116,327,428,332
225117,321,428,325
225118,316,427,318
225119,311,429,314
225120,312,427,317
225121,320,425,326
225122,328,431,335
225123,334,429,344
225124,341,426,351
225125,345,430,357
225126,350,430,362
225127,354,431,366
225128,362,431,374
225129,364,432,381
225130,364,428,379
225131,357,433,370
225132,351,431,361
225133,344,432,351
225134,339,432,346
225135,336,434,342
225136,331,435,336
225137,327,434,331
225138,321,435,324
225139,316,433,319
225140,318,435,321
225141,325,435,329
225142,333,438,340
225143,338,437,349
225144,346,438,355
225145,352,439,363
225146,356,439,367
225147,361,439,374
225148,367,438,382
225149,372,441,388
225150,371,442,385
225151,366,444,378
225152,358,443,368
225153,351,443,361
225154,345,444,354
225155,343,445,349
225156,336,444,344
225157,335,444,338
225158,328,446,332
225159,323,445,326
225160,324,445,329
225161,331,445,337
225162,338,446,346
225163,345,444,355
225164,351,447,363
225165,356,447,368
225166,360,446,372
225167,364,446,378
225168,370,445,385
225169,377,445,391
225170,376,449,388
225171,369,447,381
225172,361,448,369
225173,354,445,363
225174,349,445,357
225175,344,444,351
225176,339,445,345
225177,336,446,341
225178,330,448,333
225179,326,447,327
225180,328,449,329
225181,334,449,339
225182,340,448,349
225183,347,449,356
225184,355,450,364
225185,357,452,371
225186,363,452,376
225187,368,452,381
225188,375,449,389
225189,380,453,395
225190,380,454,392
225191,373,453,387
225192,370,455,377
225193,360,452,368
225194,355,452,361
225195,349,453,356
225196,346,453,350
225197,342,454,347
225198,334,457,338
225199,331,455,333
225200,333,456,336
225201,338,456,344
225202,345,457,355
225203,354,456,365
225204,359,456,371
225205,363,456,375
225206,370,456,382
225207,372,454,387
225208,382,457,395
225209,385,458,401
225210,384,459,397
225211,379,457,389
225212,371,457,380
225213,364,458,371
225214,357,456,365
225215,354,460,359
225216,348,458,354
225217,345,460,350
225218,338,454,342
225219,333,455,336
225220,335,459,339
225221,339,459,347
225222,347,456,356
225223,354,460,364
225224,360,458,373
225225,366,459,378
225226,371,459,382
225227,374,460,388
225228,382,459,397
225229,387,462,404
225230,387,459,401
225231,381,464,394
225232,374,463,383
225233,365,464,374
225234,359,466,367
225235,356,461,364
225236,352,461,359
225237,349,464,354
225238,340,466,347
225239,338,466,339
225240,339,467,344
225241,346,465,352
225242,352,465,363
225243,361,467,369
225244,367,466,378
225245,371,467,383
225246,374,466,388
225247,380,467,395
225248,387,468,401
225249,392,467,408
225250,392,470,406
225251,384,469,398
225252,378,470,389
225253,371,470,380
225254,365,470,374
225255,362,469,368
225256,357,472,364
225257,353,470,359
225258,345,469,349
225259,342,468,345
225260,342,471,347
225261,350,471,356
225262,356,471,364
225263,364,470,373
225264,371,474,381
225265,375,471,385
225266,378,473,392
225267,382,474,398
225268,390,474,406
225269,395,471,411
225270,396,476,410
225271,389,475,401
225272,383,476,392
225273,375,477,383
225274,367,476,376
225275,365,476,373
225276,360,476,369
225277,357,478,364
225278,352,477,354
225279,345,478,347
225280,347,477,352
225281,354,477,361
225282,360,477,368
225283,369,477,379
225284,375,480,386
225285,380,476,391
225286,384,481,396
225287,389,482,401
225288,396,477,411
225289,398,482,416
225290,400,483,415
225291,396,480,410
225292,387,482,397
225293,380,483,391
225294,374,481,383
225295,371,483,378
225296,365,485,372
225297,362,483,367
225298,356,485,360
225299,351,484,354
225300,352,483,357
225301,361,486,365
225302,366,485,375
225303,373,486,384
225304,379,486,391
225305,385,488,396
225306,389,486,402
225307,393,483,408
225308,400,487,416
225309,406,491,421
225310,405,490,419
225311,399,489,413
225312,391,489,402
225313,384,487,393
225314,379,489,388
225315,375,491,383
225316,369,490,377
225317,367,489,372
225318,359,489,364
225319,354,490,359
225320,357,490,362
225321,362,487,369
225322,370,490,378
225323,377,492,388
225324,383,488,396
225325,389,489,401
225326,392,492,405
225327,396,489,412
225328,403,490,419
225329,408,493,425
225330,408,492,424
225331,402,495,416
225332,396,495,407
225333,387,493,399
225334,383,495,392
225335,379,494,385
225336,374,496,381
225337,371,495,376
225338,363,495,369
225339,359,495,362
225340,359,492,365
225341,365,495,371
225342,372,492,382
225343,381,496,391
225344,388,496,399
225345,391,498,404
225346,396,497,411
225347,400,494,415
225348,407,497,423
225349,412,498,430
225350,411,494,428
225351,406,498,421
225352,399,500,412
225353,391,500,401
225354,385,499,394
225355,379,499,390
225356,376,498,384
225357,373,498,379
225358,367,499,371
225359,359,498,365
225360,362,498,367
225361,368,499,375
225362,376,501,385
225363,383,500,394
225364,387,499,403
225365,393,501,407
225366,398,499,412
225367,401,499,417
225368,408,502,426
225369,414,500,433
225370,413,502,431
225371,407,502,421
225372,401,501,414
225373,393,501,406
225374,388,498,398
225375,385,502,393
225376,379,501,388
225377,375,502,381
225378,368,503,372
225379,362,502,369
225380,363,502,370
225381,370,502,378
225382,375,502,387
225383,385,502,396
225384,391,502,403
225385,396,501,407
225386,401,501,414
225387,405,501,420
225388,412,501,426
225389,418,502,435
225390,416,504,432
225391,409,502,424
225392,402,503,416
225393,394,504,406
225394,388,501,399
225395,384,504,393
225396,380,503,388
225397,376,498,384
225398,368,503,374
225399,363,502,367
225400,364,504,370
225401,370,499,379
225402,378,504,387
225403,386,501,397
225404,392,500,403
225405,395,505,408
225406,401,503,416
225407,403,504,419
225408,410,504,428
225409,417,504,435
225410,417,504,434
225411,412,504,423
225412,405,504,417
225413,396,502,407
225414,391,502,400
225415,384,506,394
225416,382,505,389
225417,378,502,384
225418,371,507,376
225419,366,506,369
225420,366,506,372
225421,372,505,381
225422,379,507,389
225423,388,506,400
225424,394,506,408
225425,398,506,412
225426,403,506,417
225427,406,505,421
225428,414,507,431
225429,420,507,438
225430,419,507,435
225431,412,508,425
225432,407,509,418
225433,398,509,409
225434,392,510,401
225435,388,509,398
225436,384,505,392
225437,381,509,387
225438,374,508,379
225439,367,508,372
225440,367,508,375
225441,375,508,383
225442,380,507,390
225443,389,507,400
225444,394,506,408
225445,398,510,413
225446,404,507,418
225447,407,505,422
225448,415,505,433
225449,421,508,437
225450,420,506,435
225451,412,506,427
225452,406,507,417
225453,396,507,406
225454,391,506,401
225455,387,504,396
225456,381,506,390
225457,378,505,385
225458,371,505,376
225459,363,504,369
225460,365,505,372
225461,369,503,379
225462,377,499,386
225463,384,503,398
225464,390,503,405
225465,396,502,408
225466,399,505,413
225467,403,501,419
225468,411,499,427
225469,415,501,433
225470,414,498,431
225471,408,500,422
225472,401,499,412
225473,393,497,403
225474,386,498,395
225475,382,498,389
225476,377,498,383
225477,373,497,380
225478,365,498,372
225479,360,494,366
225480,360,495,365
225481,365,493,372
225482,371,493,382
225483,379,491,391
225484,384,491,397
225485,388,493,403
225486,393,492,408
225487,398,493,413
225488,405,492,421
225489,409,491,427
225490,408,492,425
225491,403,490,415
225492,395,490,408
225493,387,492,396
225494,380,488,389
225495,376,488,385
225496,370,490,378
225497,368,489,375
225498,358,487,363
225499,353,487,357
225500,354,483,360
225501,360,488,367
225502,366,487,374
225503,374,486,384
225504,380,487,391
225505,381,487,397
225506,389,485,402
225507,393,486,406
225508,398,484,416
225509,404,485,421
225510,403,482,419
225511,393,483,411
225512,390,486,402
225513,382,482,391
225514,376,483,385
225515,371,479,379
225516,366,484,373
225517,362,482,369
225518,353,482,361
225519,350,481,353
225520,351,478,356
225521,355,483,364
225522,363,482,371
225523,372,481,381
225524,374,481,388
225525,377,479,392
225526,384,480,397
225527,388,480,402
225528,395,479,410
225529,400,482,418
225530,398,480,416
225531,393,477,407
225532,388,481,399
225533,379,482,388
225534,372,479,381
225535,368,479,377
225536,363,480,369
225537,359,478,365
225538,353,479,357
225539,347,479,351
225540,345,479,352
225541,354,477,359
225542,359,477,369
225543,368,478,379
225544,372,477,385
225545,377,478,389
225546,383,476,397
225547,387,476,402
225548,395,479,410
225549,399,475,415
225550,400,479,414
225551,393,479,406
225552,388,478,397
225553,377,477,387
225554,372,476,380
225555,367,479,375
225556,364,478,369
225557,359,478,367
225558,352,476,358
225559,347,476,351
225560,345,477,352
225561,353,478,359
225562,358,478,368
225563,367,477,377
225564,372,478,385
225565,376,473,390
225566,382,478,398
225567,384,477,401
225568,391,477,409
225569,395,478,414
225570,397,479,413
225571,392,476,406
225572,386,476,396
225573,378,476,385
225574,371,477,378
225575,368,476,375
225576,363,477,368
225577,359,478,365
225578,352,479,356
225579,346,476,350
225580,345,475,350
225581,352,477,358
225582,358,475,366
225583,365,474,378
225584,373,474,385
225585,375,477,388
225586,380,473,395
225587,383,476,398
225588,391,476,407
225589,398,473,414
225590,396,475,413
225591,392,473,404
225592,384,476,394
225593,375,475,384
225594,369,473,378
225595,363,472,372
225596,360,475,367
225597,355,473,362
225598,348,473,352
225599,343,475,346
225600,344,474,347
225601,349,469,356
225602,355,474,365
225603,363,474,375
225604,369,468,382
225605,372,473,386
225606,378,469,392
225607,382,469,395
225608,389,470,405
225609,394,472,410
225610,394,468,410
225611,387,469,401
225612,381,471,392
225613,372,472,384
225614,367,471,375
225615,361,471,372
225616,355,470,365
225617,354,472,360
225618,347,471,351
225619,343,472,345
225620,343,467,346
225621,349,470,353
225622,354,469,363
225623,363,470,374
225624,368,468,379
225625,370,467,384
225626,376,470,390
225627,381,470,393
225628,389,468,402
225629,393,475,411
225630,394,468,409
225631,388,470,402
225632,381,472,393
225633,372,468,381
225634,367,470,374
225635,364,472,371
225636,357,471,365
225637,355,472,360
225638,347,470,350
225639,341,468,345
225640,342,471,347
225641,346,469,354
225642,353,470,361
225643,362,471,374
225644,368,470,379
225645,371,470,385
225646,377,468,391
225647,379,470,394
225648,389,469,402
225649,393,467,412
225650,394,471,411
225651,387,470,400
225652,381,469,393
225653,373,469,382
225654,367,473,375
225655,363,472,370
225656,356,470,363
225657,354,471,360
225658,347,472,353
225659,341,471,344
225660,342,470,346
225661,347,468,355
225662,353,468,361
225663,361,468,374
225664,368,470,379
225665,372,467,383
225666,377,470,389
225667,380,469,395
225668,388,469,404
225669,392,469,408
225670,393,467,408
225671,386,470,401
225672,382,469,393
225673,371,468,382
225674,366,469,375
225675,361,470,370
225676,356,467,363
225677,353,470,360
225678,346,468,352
225679,341,469,346
225680,341,469,346
225681,346,470,354
225682,352,469,360
225683,362,470,373
225684,366,469,378
225685,371,469,382
225686,377,468,389
225687,379,470,393
225688,388,468,402
225689,391,468,407
225690,391,471,406
225691,387,469,400
225692,379,468,391
225693,371,468,382
225694,365,469,374
225695,360,466,369
225696,356,468,363
225697,352,467,359
225698,346,469,349
225699,339,470,343
225700,338,467,344
225701,345,469,352
225702,352,467,358
225703,361,467,370
225704,364,469,378
225705,371,467,383
225706,374,468,388
225707,378,469,390
225708,386,468,400
225709,391,469,407
225710,390,467,407
225711,385,470,399
225712,379,469,391
225713,371,468,381
225714,364,469,374
225715,361,470,369
225716,356,466,363
225717,351,469,359
225718,344,468,350
225719,338,467,343
225720,337,467,343
225721,342,467,352
225722,351,466,358
225723,358,465,368
225724,363,465,376
225725,368,461,380
225726,375,463,386
225727,375,466,390
225728,385,466,399
225729,389,466,405
225730,391,463,406
225731,384,464,396
225732,377,466,389
225733,367,465,379
225734,363,465,370
225735,359,466,366
225736,352,464,360
225737,349,465,357
225738,342,465,347
225739,336,464,341
225740,335,464,342
225741,342,464,349
225742,349,465,357
225743,355,465,369
225744,364,466,376
225745,368,467,379
225746,373,464,386
225747,377,460,392
225748,383,467,400
225749,388,465,406
225750,391,466,405
225751,386,467,398
225752,379,467,391
225753,370,468,381
225754,364,467,373
225755,362,467,369
225756,355,466,361
225757,352,469,358
225758,345,466,348
225759,339,463,342
225760,338,463,341
225761,344,462,349
225762,349,463,357
225763,359,464,368
225764,366,464,375
225765,369,463,379
225766,374,459,385
225767,378,464,389
225768,382,464,399
225769,390,463,405
225770,389,466,403
225771,384,464,397
225772,377,465,388
225773,371,464,379
225774,363,470,372
225775,361,468,368
225776,356,470,363
225777,354,469,358
225778,347,470,349
225779,342,469,345
225780,341,470,345
225781,346,469,353
225782,351,469,360
225783,361,466,370
225784,366,464,377
225785,371,466,382
225786,375,468,387
225787,378,465,390
225788,386,468,401
225789,388,467,407
225790,391,468,406
225791,387,467,399
225792,379,470,391
225793,370,467,380
225794,364,464,372
225795,360,468,369
225796,355,469,362
225797,352,470,359
225798,346,469,350
225799,341,465,345
225800,340,469,344
225801,346,469,351
225802,353,471,359
225803,360,470,371
225804,368,470,379
225805,371,470,384
225806,377,472,389
225807,381,473,396
225808,390,476,404
225809,393,473,409
225810,394,472,412
225811,389,472,403
225812,383,472,395
225813,372,474,382
225814,368,470,376
225815,365,471,371
225816,358,472,364
225817,354,472,361
225818,348,469,352
225819,342,472,347
225820,342,470,347
225821,348,471,353
225822,353,469,362
225823,361,472,373
225824,368,469,379
225825,372,470,384
225826,377,469,392
225827,380,471,395
225828,388,472,404
225829,394,473,411
225830,394,472,409
225831,389,470,403
225832,382,473,395
225833,373,471,383
225834,367,470,376
225835,362,472,372
225836,357,471,365
225837,353,471,363
225838,346,472,352
225839,344,469,347
225840,343,471,346
225841,349,473,355
225842,355,471,364
225843,363,477,374
225844,369,475,382
225845,374,473,385
225846,381,474,394
225847,383,475,398
225848,392,475,406
225849,395,475,412
225850,396,474,412
225851,390,473,405
225852,384,475,395
225853,375,471,384
225854,369,472,377
225855,365,473,371
225856,359,472,367
225857,355,473,361
225858,350,471,353
225859,344,475,348
225860,344,475,348
225861,350,474,354
225862,356,473,365
225863,364,475,376
225864,372,472,382
225865,374,476,388
225866,382,474,396
225867,384,478,398
225868,392,474,407
225869,397,477,415
225870,398,482,414
225871,394,479,407
225872,386,476,400
225873,378,476,389
225874,372,478,380
225875,368,480,377
225876,363,478,371
225877,360,479,365
225878,353,482,357
225879,348,477,352
225880,347,477,354
225881,350,480,359
225882,359,479,366
225883,368,480,378
225884,374,480,384
225885,378,480,390
225886,384,478,396
225887,387,482,400
225888,396,480,410
225889,401,480,416
225890,401,478,418
225891,397,481,409
225892,390,482,402
225893,380,482,390
225894,374,480,383
225895,372,487,377
225896,363,481,371
225897,363,479,368
225898,354,481,359
225899,350,481,353
225900,349,480,354
225901,354,480,363
225902,359,480,369
225903,368,480,380
225904,374,482,386
225905,378,479,391
225906,384,480,398
225907,387,480,402
225908,395,480,411
225909,400,478,416
225910,401,480,416
225911,395,481,409
225912,388,481,400
225913,380,479,389
225914,374,480,383
225915,369,478,377
225916,362,480,372
225917,359,478,367
225918,353,478,358
225919,348,478,352
225920,347,478,353
225921,354,475,359
225922,355,477,366
225923,367,477,377
225924,372,477,383
225925,373,476,387
225926,380,476,394
225927,384,477,398
225928,392,477,408
225929,399,477,414
225930,400,475,415
225931,393,478,406
225932,387,477,398
225933,378,474,388
225934,372,479,382
225935,367,480,376
225936,362,477,369
225937,358,476,366
225938,352,474,355
225939,345,474,348
225940,345,474,347
225941,350,475,357
225942,356,474,364
225943,364,470,373
225944,370,475,382
225945,372,472,385
225946,379,473,391
225947,381,472,397
225948,389,472,406
225949,392,473,411
225950,394,472,410
225951,389,474,404
225952,383,471,395
225953,376,470,383
225954,369,473,377
225955,364,472,373
225956,360,472,366
225957,355,473,361
225958,349,471,354
225959,343,471,348
225960,342,469,347
225961,347,472,352
225962,352,470,362
225963,361,468,372
225964,366,469,379
225965,370,469,383
225966,377,472,390
225967,379,467,393
225968,386,472,403
225969,392,469,407
225970,391,466,408
225971,387,469,401
225972,379,469,393
225973,373,469,382
225974,365,467,375
225975,361,469,371
225976,355,469,364
225977,353,469,360
225978,345,469,350
225979,342,469,345
225980,339,466,344
225981,345,463,350
225982,351,468,358
225983,359,467,370
225984,364,468,374
225985,368,467,382
225986,375,464,388
225987,378,468,392
225988,384,467,399
225989,389,466,406
225990,392,465,408
225991,384,467,398
225992,378,465,392
225993,370,466,381
225994,364,466,373
225995,361,468,368
225996,355,465,360
225997,351,462,357
225998,343,466,348
225999,339,464,342
226000,337,462,342
226001,342,462,348
226002,347,461,355
226003,355,461,365
226004,361,464,372
226005,365,460,377
226006,370,463,384
226007,375,463,387
226008,381,463,397
226009,386,463,402
226010,387,460,403
226011,382,462,394
226012,376,463,386
226013,367,463,376
226014,362,462,370
226015,357,460,364
226016,352,461,357
226017,346,461,353
226018,339,460,346
226019,336,460,338
226020,334,460,339
226021,339,457,346
226022,344,459,352
226023,353,460,362
226024,359,459,370
226025,363,459,375
226026,366,458,380
226027,372,457,383
226028,380,456,392
226029,385,455,400
226030,385,457,401
226031,380,459,393
226032,372,459,384
226033,365,456,374
226034,360,460,366
226035,355,459,362
226036,348,458,354
226037,346,457,351
226038,338,456,343
226039,333,456,337
226040,332,457,337
226041,337,456,342
226042,343,456,351
226043,351,456,362
226044,358,456,368
226045,360,455,372
226046,366,458,379
226047,369,457,383
226048,376,455,393
226049,382,455,396
226050,383,453,398
226051,376,458,390
226052,372,457,382
226053,361,458,371
226054,355,458,366
226055,354,459,362
226056,347,458,355
226057,344,458,352
226058,338,457,343
226059,334,457,337
226060,331,456,335
226061,335,454,342
226062,343,456,351
226063,351,457,360
226064,357,454,366
226065,359,456,371
226066,364,454,379
226067,368,454,380
226068,376,455,391
226069,380,453,396
226070,382,456,397
226071,378,455,390
226072,372,453,383
226073,363,455,370
226074,358,455,363
226075,352,456,360
226076,348,454,353
226077,344,456,350
226078,337,455,341
226079,332,454,335
226080,330,455,334
226081,337,455,341
226082,342,457,350
226083,350,455,361
226084,356,458,366
226085,361,451,373
226086,365,455,379
226087,368,456,383
226088,377,456,393
226089,382,455,398
226090,383,455,400
226091,377,454,390
226092,371,455,383
226093,362,453,371
226094,356,455,366
226095,353,454,360
226096,346,455,353
226097,344,454,350
226098,338,453,340
226099,331,451,335
226100,332,453,335
226101,333,453,340
226102,339,451,348
226103,348,453,358
226104,356,451,364
226105,358,456,370
226106,365,454,376
226107,367,454,379
226108,374,455,389
226109,379,453,394
226110,381,454,395
226111,375,455,389
226112,371,456,381
226113,361,454,371
226114,356,455,364
226115,350,452,360
226116,345,455,353
226117,342,453,350
226118,336,456,343
226119,332,455,335
226120,329,456,334
226121,335,454,341
226122,340,455,349
226123,349,454,360
226124,356,451,365
226125,359,452,371
226126,364,456,377
226127,368,454,381
226128,376,455,392
226129,382,455,398
226130,383,455,397
226131,376,454,387
226132,372,454,382
226133,363,457,371
226134,356,454,365
226135,352,454,362
226136,346,454,354
226137,344,456,351
226138,338,456,341
226139,334,452,335
226140,332,455,335
226141,336,457,340
226142,341,453,350
226143,349,455,361
226144,358,455,367
226145,360,458,372
226146,367,455,379
226147,369,458,383
226148,376,457,392
226149,382,458,398
226150,383,460,399
226151,380,460,394
226152,375,461,387
226153,366,460,375
226154,362,461,370
226155,356,459,364
226156,351,457,358
226157,348,459,354
226158,341,459,345
226159,335,457,337
226160,334,459,338
226161,338,457,346
226162,344,454,352
226163,353,459,362
226164,358,457,370
226165,364,458,374
226166,368,457,380
226167,371,459,383
226168,378,456,392
226169,384,457,400
226170,386,459,401
226171,380,461,395
226172,374,460,388
226173,367,462,376
226174,361,463,369
226175,358,459,366
226176,353,461,360
226177,351,464,356
226178,344,463,348
226179,339,462,342
226180,336,462,341
226181,342,463,348
226182,349,465,355
226183,356,464,367
226184,361,465,373
226185,367,462,378
226186,371,465,386
226187,376,465,389
226188,384,466,399
226189,388,466,404
226190,390,465,406
226191,386,467,399
226192,381,467,391
226193,371,468,382
226194,365,466,375
226195,361,467,368
226196,358,467,364
226197,354,466,361
226198,347,464,351
226199,342,467,346
226200,339,464,345
226201,346,463,351
226202,352,468,359
226203,358,466,369
226204,365,469,376
226205,371,470,382
226206,377,466,389
226207,380,468,392
226208,386,471,403
226209,392,472,407
226210,394,473,410
226211,388,473,402
226212,384,473,394
226213,378,473,384
226214,369,472,378
226215,366,473,374
226216,361,473,369
226217,357,474,364
226218,350,473,355
226219,345,474,348
226220,343,472,349
226221,348,474,355
226222,355,474,361
226223,361,473,373
226224,368,471,380
226225,375,475,386
226226,379,471,392
226227,381,475,396
226228,389,473,406
226229,394,475,409
226230,396,473,413
226231,390,477,405
226232,386,474,399
226233,377,479,387
226234,374,478,381
226235,372,478,377
226236,365,479,372
226237,361,479,371
226238,355,476,359
226239,350,477,353
226240,345,477,351
226241,351,475,357
226242,356,473,364
226243,365,476,373
226244,370,471,381
226245,374,474,386
226246,379,472,392
226247,382,473,396
226248,389,475,405
226249,394,475,411
226250,396,476,412
226251,390,475,406
226252,385,474,398
226253,377,472,387
226254,370,476,379
226255,366,473,374
226256,362,474,368
226257,356,474,365
226258,349,473,355
226259,345,471,351
226260,343,471,347
226261,349,473,353
226262,353,471,361
226263,362,472,372
226264,367,471,378
226265,371,470,385
226266,377,472,392
226267,380,471,394
226268,388,473,404
226269,393,473,409
226270,395,472,410
226271,390,474,404
226272,384,473,396
226273,374,472,386
226274,369,473,379
226275,365,471,374
226276,359,472,367
226277,356,469,363
226278,348,471,353
226279,344,470,347
226280,341,469,347
226281,347,469,352
226282,352,468,360
226283,359,470,371
226284,367,468,376
226285,370,469,383
226286,378,470,390
226287,380,471,394
226288,387,472,403
226289,392,472,408
226290,394,469,410
226291,390,474,403
226292,384,470,396
226293,375,471,384
226294,368,472,376
226295,362,470,372
226296,360,470,365
226297,355,468,362
226298,348,470,354
226299,342,468,348
226300,340,466,346
226301,343,466,352
226302,351,466,358
226303,358,469,369
226304,364,468,376
226305,370,465,380
226306,373,465,388
226307,376,468,390
226308,385,466,400
226309,390,465,405
226310,392,467,404
226311,386,463,398
226312,379,464,391
226313,370,464,381
226314,364,467,373
226315,360,464,367
226316,354,465,361
226317,351,465,358
226318,345,464,349
226319,339,463,342
226320,337,464,342
226321,341,461,348
226322,347,463,354
226323,355,461,365
226324,360,464,372
226325,366,465,377
226326,372,464,384
226327,373,465,387
226328,381,465,397
226329,385,464,403
226330,389,463,404
226331,384,464,398
226332,378,464,390
226333,370,463,381
226334,363,464,374
226335,358,465,368
226336,354,463,362
226337,351,464,357
226338,344,461,349
226339,338,462,342
226340,335,461,342
226341,341,461,347
226342,347,462,354
226343,357,463,364
226344,363,465,372
226345,368,465,379
226346,371,466,385
226347,375,464,388
226348,380,464,397
226349,385,465,402
226350,387,463,403
226351,384,463,397
226352,376,460,389
226353,369,460,377
226354,362,460,370
226355,357,461,364
226356,352,462,358
226357,348,462,354
226358,341,460,345
226359,335,459,340
226360,334,460,338
226361,339,457,344
226362,344,458,352
226363,353,457,361
226364,360,460,369
226365,364,462,375
226366,368,459,382
226367,370,460,384
226368,377,461,393
226369,383,459,399
226370,386,459,401
226371,380,459,394
226372,373,460,388
226373,365,456,376
226374,360,457,368
226375,355,455,363
226376,350,457,356
226377,349,458,354
226378,338,456,342
226379,334,454,336
226380,331,455,336
226381,336,455,342
226382,340,454,348
226383,350,454,359
226384,352,453,366
226385,359,455,371
226386,365,455,377
226387,366,454,380
226388,374,454,390
226389,380,453,395
226390,383,454,396
226391,377,454,389
226392,371,453,381
226393,363,454,370
226394,357,454,365
226395,352,452,359
226396,347,455,353
226397,346,456,349
226398,339,457,342
226399,333,458,336
226400,331,456,335
226401,334,455,341
226402,341,455,347
226403,348,454,358
226404,355,453,365
226405,358,456,370
226406,362,454,376
226407,367,454,380
226408,374,454,389
226409,380,456,396
226410,381,456,397
226411,378,457,392
226412,373,455,384
226413,364,455,374
226414,359,456,367
226415,352,455,360
226416,347,454,353
226417,344,455,353
226418,338,454,342
226419,333,453,336
226420,330,455,334
226421,334,454,340
226422,340,453,347
226423,348,454,357
226424,353,453,363
226425,358,453,370
226426,366,453,375
226427,365,452,380
226428,374,454,387
226429,378,454,394
226430,381,454,396
226431,375,453,390
226432,371,452,384
226433,361,453,370
226434,355,455,365
226435,353,455,360
226436,347,453,354
226437,344,455,351
226438,337,455,341
226439,333,455,337
226440,332,454,333
226441,334,451,340
226442,340,450,347
226443,349,452,358
226444,352,451,362
226445,357,451,368
226446,361,451,376
226447,364,451,376
226448,373,448,387
226449,376,451,392
226450,380,452,392
226451,374,452,388
226452,371,453,380
226453,360,453,371
226454,356,453,365
226455,350,454,359
226456,344,453,354
226457,344,453,349
226458,338,453,341
226459,334,456,335
226460,331,455,334
226461,336,453,340
226462,341,456,348
226463,350,456,359
226464,355,458,365
226465,362,458,372
226466,366,461,378
226467,371,460,385
226468,379,462,393
226469,383,462,399
226470,386,462,402
226471,385,462,397
226472,377,465,389
226473,370,464,381
226474,364,467,372
226475,358,464,368
226476,353,464,361
226477,351,464,358
226478,343,462,349
226479,340,460,342
226480,336,461,338
226481,339,460,344
226482,345,457,353
226483,351,461,362
226484,359,460,371
226485,363,461,374
226486,368,460,381
226487,373,461,384
226488,379,463,394
226489,383,460,400
226490,387,462,403
226491,383,464,397
226492,376,463,389
226493,370,464,380
226494,363,465,372
226495,359,463,367
226496,354,465,361
226497,349,462,356
226498,343,463,348
226499,337,462,342
226500,337,462,340
226501,341,459,346
226502,345,459,353
226503,352,458,363
226504,357,461,369
226505,363,459,373
226506,369,462,380
226507,370,462,384
226508,378,462,395
226509,385,463,400
226510,388,465,403
226511,385,464,397
226512,378,464,389
226513,369,464,378
226514,363,461,371
226515,358,458,365
226516,354,461,359
226517,350,460,356
226518,342,458,346
226519,334,456,339
226520,334,457,337
226521,337,456,343
226522,342,456,349
226523,349,455,360
226524,356,456,367
226525,362,451,372
226526,366,455,378
226527,368,453,379
226528,373,454,390
226529,379,454,394
226530,382,454,397
226531,377,453,391
226532,369,451,383
226533,362,454,369
226534,358,453,366
226535,352,456,360
226536,347,454,354
226537,344,453,350
226538,335,452,341
226539,332,451,334
226540,329,449,332
226541,332,451,339
226542,338,451,345
226543,345,452,355
226544,353,448,362
226545,357,450,367
226546,360,450,373
226547,363,449,377
226548,369,450,382
226549,375,445,390
226550,376,447,393
226551,371,445,387
226552,368,447,377
226553,359,443,367
226554,352,446,360
226555,346,444,354
226556,340,445,348
226557,340,448,344
226558,332,447,338
226559,328,446,331
226560,325,443,329
226561,328,446,333
226562,334,447,341
226563,341,446,352
226564,347,443,357
226565,351,446,363
226566,358,445,368
226567,360,445,371
226568,368,446,383
226569,373,448,387
226570,377,443,392
226571,374,447,385
226572,365,445,378
226573,359,447,368
226574,351,448,361
226575,346,444,354
226576,342,446,347
226577,339,442,345
226578,334,448,336
226579,330,449,331
226580,326,449,330
226581,331,448,336
226582,337,451,344
226583,344,449,353
226584,351,450,361
226585,355,448,366
226586,359,449,374
226587,361,448,375
226588,370,445,383
226589,375,446,390
226590,378,448,391
226591,372,446,385
226592,367,446,378
226593,358,448,366
226594,353,446,360
226595,348,448,354
226596,341,445,347
226597,338,447,343
226598,332,443,336
226599,328,442,330
226600,324,445,327
226601,327,444,333
226602,333,443,340
226603,339,443,350
226604,347,443,356
226605,350,441,363
226606,357,444,369
226607,358,442,370
226608,367,442,380
226609,370,443,385
226610,374,440,389
226611,372,444,383
226612,363,444,374
226613,357,444,364
226614,351,443,358
226615,345,443,352
226616,341,442,346
226617,336,442,343
226618,330,439,333
226619,326,444,327
226620,322,444,325
226621,326,440,332
226622,333,441,338
226623,342,443,348
226624,347,441,354
226625,351,441,363
226626,357,442,366
226627,359,442,371
226628,367,443,379
226629,370,443,386
226630,373,443,389
226631,371,445,384
226632,366,444,376
226633,357,445,365
226634,351,446,359
226635,344,445,354
226636,340,445,348
226637,338,445,345
226638,333,444,335
226639,328,447,330
226640,324,446,327
226641,329,446,334
226642,333,447,341
226643,341,443,352
226644,350,447,360
226645,355,446,364
226646,359,445,371
226647,360,444,373
226648,368,446,381
226649,374,443,388
226650,376,444,391
226651,373,448,387
226652,367,446,379
226653,360,447,368
226654,355,448,361
226655,348,449,357
226656,344,445,351
226657,340,447,347
226658,332,447,338
226659,327,448,331
226660,326,446,329
226661,329,445,334
226662,334,443,341
226663,342,444,351
226664,349,442,357
226665,350,444,362
226666,358,445,369
226667,361,443,372
226668,368,444,381
226669,372,444,385
226670,377,445,389
226671,372,445,384
226672,365,442,377
226673,357,444,364
226674,352,444,359
226675,345,443,352
226676,340,445,347
226677,339,444,344
226678,331,443,336
226679,325,445,330
226680,324,444,327
226681,326,444,332
226682,333,441,339
226683,341,443,350
226684,345,442,357
226685,352,444,362
226686,357,443,368
226687,360,444,371
226688,368,445,380
226689,373,445,386
226690,375,445,389
226691,371,446,384
226692,366,446,378
226693,357,445,366
226694,353,445,361
226695,347,445,354
226697,331,448,335
226698,328,445,331
226699,326,444,329
226700,325,447,329
226701,332,448,337
226702,336,448,342
226702,345,449,353
226703,349,449,360
226704,355,448,364
226705,357,448,367
226706,362,449,372
226707,364,442,377
226708,370,446,383
226709,373,445,390
226710,376,447,390
226711,373,443,387
226712,367,450,379
226713,360,446,368
226714,356,446,365
226715,349,444,360
226716,346,446,354
226717,342,446,347
226718,333,447,336
226719,328,439,329
226720,326,443,328
226721,328,443,331
226722,335,443,342
226723,341,446,351
226724,349,443,357
226725,352,444,364
226726,358,446,368
226727,361,448,371
226728,369,449,382
226729,372,447,387
226730,376,448,393
226731,373,448,386
226732,369,450,379
226733,361,451,370
226734,356,449,363
226735,350,452,358
226736,346,451,353
226737,342,452,348
226738,337,450,341
226739,331,449,335
226740,328,451,330
226741,332,453,336
226742,337,450,345
226743,345,451,354
226744,352,450,361
226745,357,452,368
226746,362,453,373
226747,366,452,380
226748,373,451,387
226749,378,454,394
226750,381,454,395
226751,379,455,392
226752,374,457,384
226753,367,457,373
226754,359,455,367
226755,354,457,362
226756,351,457,356
226757,348,458,355
226758,342,455,347
226759,337,455,340
226760,334,455,338
226761,337,459,343
226762,344,458,351
226763,352,459,361
226764,356,460,367
226765,362,459,375
226766,367,462,379
226767,370,462,384
226768,376,463,392
226769,383,464,399
226770,388,465,402
226771,385,463,398
226772,379,465,390
226773,369,464,379
226774,362,463,372
226775,358,463,367
226776,353,463,360
226777,348,463,355
226778,343,459,349
226779,338,463,341
226780,336,462,340
226781,339,463,346
226782,346,465,353
226783,354,464,363
226784,360,462,370
226785,367,463,377
226786,372,461,383
226787,375,466,387
226788,382,461,394
226789,385,465,402
226790,390,465,405
226791,386,466,399
226792,379,466,394
226793,370,465,381
226794,366,465,377
226795,361,469,369
226796,356,461,362
226797,353,468,358
226798,347,465,351
226799,342,466,343
226800,338,462,340
226801,343,464,347
226802,347,465,354
226803,355,467,363
226804,361,464,372
226805,367,465,376
226806,371,465,385
226807,374,465,389
226808,380,461,396
226809,386,467,403
226810,390,466,406
226811,387,466,401
226812,381,468,391
226813,373,468,383
226814,365,466,375
226815,362,467,368
226816,358,468,365
226817,355,465,360
226818,350,466,352
226819,344,469,347
226820,340,467,343
226821,343,464,348
226822,349,469,356
226823,356,467,367
226824,363,463,373
226825,367,466,378
226826,373,465,385
226827,376,466,390
226828,383,468,397
226829,388,466,404
226830,391,468,408
226831,389,469,403
226832,382,468,393
226833,374,468,385
226834,368,469,377
226835,363,467,370
226836,357,468,366
226837,354,469,361
226838,349,469,353
226839,343,468,346
226840,339,468,342
226841,343,467,348
226842,348,470,358
226843,357,468,367
226844,363,465,374
226845,368,467,381
226846,372,469,386
226847,376,467,389
226848,381,465,397
226849,386,468,403
226850,389,467,407
226851,387,465,402
226852,380,465,394
226853,374,466,382
226854,366,467,376
226855,363,467,371
226856,359,467,366
226857,355,468,361
226858,350,468,353
226859,341,469,349
226860,338,469,345
226861,342,467,349
226862,350,468,357
226863,355,464,366
226864,362,467,373
226865,368,469,382
226866,374,461,388
226867,375,466,390
226868,382,465,398
226869,388,464,403
226870,389,467,405
226871,389,467,402
226872,381,466,393
226873,372,466,381
226874,367,469,376
226875,361,465,370
226876,357,468,364
226877,354,468,361
226878,348,466,352
226879,343,469,346
226880,340,470,344
226881,343,469,348
226882,348,467,357
226883,357,469,366
226884,363,467,375
226885,370,468,380
226886,372,465,386
226887,377,467,389
226888,381,468,398
226889,387,466,404
226890,391,469,409
226891,388,468,403
226892,382,467,395
226893,374,470,384
226894,368,469,378
226895,365,470,370
226896,360,466,366
226897,355,468,360
226898,349,463,353
226899,342,469,346
226900,340,467,342
226901,342,468,347
226902,348,468,355
226903,356,467,365
226904,363,471,373
226905,367,467,378
226906,373,466,384
226907,379,468,390
226908,384,463,397
226909,391,469,403
226910,392,465,407
226911,388,469,401
226912,382,470,393
226913,374,467,384
226914,368,467,375
226915,362,466,370
226916,357,467,363
226917,353,466,360
226918,347,468,352
226919,343,465,348
226920,341,465,342
226921,343,466,348
226922,348,465,354
226923,355,466,364
226924,362,466,374
226925,367,465,380
226926,373,466,386
226927,374,466,387
226928,381,462,396
226929,387,463,404
226930,389,466,405
226931,385,465,400
226932,381,465,394
226933,373,465,383
226934,365,466,375
226935,362,463,369
226936,355,465,364
226937,352,465,360
226938,347,465,352
226939,339,464,343
226940,336,462,342
226941,340,462,345
226942,346,463,353
226943,353,465,361
226944,359,462,370
226945,365,463,376
226946,370,463,383
226947,371,461,386
226948,379,465,394
226949,385,465,400
226950,388,466,403
226951,385,464,399
226952,380,465,392
226953,372,459,381
226954,366,465,375
226955,359,465,369
226956,356,463,363
226957,352,462,358
226958,345,463,351
226959,339,461,343
226960,336,462,338
226961,338,459,343
226962,344,460,352
226963,352,461,362
226964,357,462,368
226965,364,460,374
226966,368,459,380
226967,370,461,384
226968,378,462,392
226969,384,461,398
226970,384,460,402
226971,385,460,397
226972,379,458,390
226973,371,462,379
226974,364,458,373
226975,359,462,366
226976,354,459,360
226977,350,462,357
226978,344,459,349
226979,340,461,342
226980,335,460,338
226981,339,462,343
226982,345,460,352
226983,352,459,360
226984,358,462,368
226985,363,462,374
226986,368,463,380
226987,373,461,384
226988,378,462,393
226989,384,460,399
226990,388,462,402
226991,385,462,398
226992,378,463,391
226993,371,463,379
226994,365,462,373
226995,359,463,366
226996,355,463,360
226997,350,462,357
226998,344,460,349
226999,339,459,344
227000,335,460,339
227001,339,463,345
227002,345,464,352
227003,352,463,362
227004,360,460,370
227005,364,462,376
227006,368,462,381
227007,371,465,386
227008,380,463,394
227009,386,463,400
227010,387,464,405
227011,387,463,400
227012,379,465,392
227013,373,466,382
227014,367,467,376
227015,361,467,370
227016,357,467,365
227017,353,468,361
227018,348,467,352
227019,343,466,347
227020,340,469,343
227021,343,468,347
227022,349,466,355
227023,356,467,366
227024,362,465,373
227025,367,464,378
227026,372,467,383
227027,374,465,387
227028,381,466,395
227029,386,467,404
227030,391,465,405
227031,388,467,403
227032,382,468,395
227033,375,468,384
227034,368,468,376
227035,362,470,370
227036,359,467,366
227037,355,469,362
227038,349,470,353
227039,344,467,348
227040,340,469,345
227041,344,467,348
227042,349,466,356
227043,357,469,365
227044,363,465,373
227045,368,467,379
227046,371,465,384
227047,375,467,388
227048,382,468,395
227049,386,468,402
227050,390,467,407
227051,387,468,403
227052,383,467,396
227053,373,468,384
227054,369,468,377
227055,362,467,371
227056,358,466,365
227057,355,466,360
227058,350,465,354
227059,344,467,348
227060,340,468,343
227061,342,467,348
227062,348,466,355
227063,354,468,366
227064,363,467,373
227065,370,465,380
227066,374,471,384
227067,375,467,387
227068,384,468,397
227069,387,469,403
227070,391,467,408
227071,390,469,404
227072,383,472,397
227073,378,470,388
227074,371,471,380
227075,366,471,373
227076,360,469,368
227077,358,471,364
227078,353,472,355
227079,348,472,350
227080,341,469,345
227081,345,467,351
227082,350,469,358
227083,358,470,367
227084,363,471,376
227085,370,471,382
227086,373,470,386
227087,377,468,389
227088,383,469,397
227089,389,471,405
227090,393,468,409
227091,392,470,404
227092,384,472,396
227093,376,472,388
227094,371,470,380
227095,365,470,375
227096,361,469,368
227097,356,469,364
227098,352,469,357
227099,346,472,349
227100,343,468,347
227101,344,471,350
227102,350,468,357
227103,358,470,365
227104,362,469,374
227105,371,469,381
227106,374,470,388
227107,378,469,390
227108,383,467,397
227109,387,468,404
227110,391,469,408
227111,390,468,404
227112,384,467,395
227113,375,469,386
227114,369,469,381
227115,364,470,374
227116,359,469,366
227117,357,469,364
227118,350,469,356
227119,345,468,350
227120,340,468,345
227121,342,466,349
227122,349,465,356
227123,355,467,366
227124,363,468,374
227125,367,466,379
227126,372,467,384
227127,376,466,389
227128,381,468,397
227129,388,468,403
227130,391,468,407
227131,390,467,403
227132,382,468,395
227133,374,468,384
227134,367,467,377
227135,363,461,369
227136,357,465,364
227137,354,464,363
227138,348,466,353
227139,342,465,347
227140,338,466,342
227141,342,466,346
227142,346,464,353
227143,354,464,362
227144,361,465,371
227145,367,463,378
227146,370,465,383
227147,373,465,387
227148,379,463,394
227149,384,465,399
227150,390,466,405
227151,387,467,401
227152,379,466,394
227153,374,466,383
227154,367,466,376
227155,361,466,370
227156,357,465,363
227157,354,466,360
227158,348,465,352
227159,341,465,347
227160,340,465,343
227161,341,463,346
227162,345,463,353
227163,353,463,364
227164,360,462,371
227165,364,464,377
227166,368,463,381
227167,374,464,385
227168,380,463,392
227169,384,463,398
227170,388,463,402
227171,386,464,398
227172,380,463,392
227173,372,463,381
227174,366,464,376
227175,359,463,368
227176,356,464,363
227177,352,462,359
227178,345,462,350
227179,339,463,345
227180,338,463,341
227181,340,462,344
227182,346,463,352
227183,353,460,361
227184,358,461,369
227185,366,463,376
227186,371,463,380
227187,373,461,384
227188,377,460,391
227189,385,462,397
227190,387,461,401
227191,385,462,399
227192,377,461,389
227193,370,461,380
227194,365,460,373
227195,357,459,366
227196,354,460,360
227197,349,459,355
227198,344,459,347
227199,338,460,343
227200,335,458,337
227201,336,458,340
227202,342,458,349
227203,349,457,357
227204,355,457,364
227205,360,456,373
227206,365,456,377
227207,367,457,380
227208,373,457,389
227209,380,460,394
227210,384,461,400
227211,382,459,395
227212,376,460,389
227213,369,461,380
227214,364,458,372
227215,358,461,366
227216,354,461,361
227217,351,463,356
227218,344,460,348
227219,339,460,342
227220,334,458,339
227221,336,459,342
227222,343,459,348
227223,350,461,360
227224,356,458,368
227225,361,460,372
227226,366,459,378
227227,369,459,381
227228,375,456,389
227229,380,456,395
227230,385,455,398
227231,382,458,396
227232,376,457,388
227233,367,454,377
227234,361,457,369
227235,354,456,363
227236,352,457,357
227237,347,456,354
227238,341,456,347
227239,338,455,341
227240,332,459,336
227241,334,455,340
227242,340,457,347
227243,348,453,356
227244,353,455,363
227245,357,451,369
227246,362,451,373
227247,366,452,378
227248,370,450,383
227249,375,447,390
227250,378,450,393
227251,375,450,391
227252,369,451,382
227253,363,448,371
227254,357,450,364
227255,351,449,358
227256,347,446,351
227257,342,449,348
227258,337,449,341
227259,332,448,334
227260,327,450,329
227261,330,450,335
227262,336,447,343
227263,342,447,351
227264,349,448,358
227265,356,444,365
227266,359,449,370
227267,362,449,374
227268,366,444,380
227269,373,449,387
227270,377,448,393
227271,376,449,390
227272,369,449,381
227273,361,449,371
227274,355,448,363
227275,349,452,357
227276,345,448,354
227277,339,451,347
227278,336,450,341
227279,331,449,332
227280,328,451,332
227281,329,449,334
227282,335,449,341
227283,340,448,352
227284,349,447,359
227285,354,449,365
227286,358,450,371
227287,363,447,376
227288,367,447,383
227289,374,445,388
227290,376,451,393
227291,376,449,390
227292,370,449,382
227293,361,448,372
227294,354,449,364
227295,349,445,357
227296,345,449,352
227297,342,450,348
227298,337,448,340
227299,330,446,334
227300,327,450,330
227301,329,446,331
227302,334,447,341
227303,342,449,350
227304,349,446,360
227305,353,448,365
227306,356,449,369
227307,361,447,373
227308,366,449,381
227309,373,448,388
227310,378,448,394
227311,378,450,390
227312,370,451,382
227313,365,451,373
227314,357,451,365
227315,353,451,360
227316,348,449,354
227317,342,450,349
227318,338,450,344
227319,332,449,338
227320,329,451,331
227321,330,449,335
227322,336,448,344
227323,344,451,352
227324,351,452,359
227325,355,451,366
227326,360,449,371
227327,363,452,376
227328,369,450,383
227329,376,449,389
227330,379,452,395
227331,376,453,391
227332,370,454,384
227333,364,452,373
227334,357,451,368
227335,352,453,359
227336,347,452,356
227337,345,452,351
227338,340,450,345
227339,335,454,337
227340,328,453,334
227341,331,452,337
227342,337,453,345
227343,347,454,354
227344,352,453,364
227345,357,455,369
227346,361,454,372
227347,365,452,378
227348,370,455,385
227349,377,455,392
227350,382,454,396
227351,380,456,394
227352,375,454,387
227353,366,452,376
227354,360,457,368
227355,357,456,361
227356,352,453,357
227357,347,456,352
227358,344,455,345
227359,335,456,340
227360,332,455,334
227361,334,456,338
227362,339,458,346
227363,348,453,356
227364,354,456,364
227365,359,455,370
227366,364,455,374
227367,368,455,381
227368,372,458,387
227369,381,457,396
227370,386,456,398
227371,381,456,396
227372,375,459,386
227373,369,456,379
227374,363,459,371
227375,356,458,364
227376,352,459,359
227377,346,458,354
227378,344,457,349
227379,337,458,341
227380,334,460,336
227381,336,457,342
227382,341,458,348
227383,348,459,358
227384,354,459,365
227385,361,457,372
227386,366,460,377
227387,370,460,382
227388,376,457,387
227389,381,461,397
227390,385,463,402
227391,384,461,396
227392,377,461,389
227393,371,461,382
227394,365,462,375
227395,359,461,365
227396,355,461,363
227397,352,460,358
227398,347,462,351
227399,340,463,345
227400,337,463,340
227401,338,462,344
227402,344,462,352
227403,350,462,360
227404,359,463,369
227405,365,463,376
227406,368,463,381
227407,372,462,385
227408,377,465,393
227409,384,463,399
227410,389,466,403
227411,386,461,402
227412,380,468,393
227413,373,465,386
227414,367,463,376
227415,359,466,367
227416,356,464,362
227417,353,465,359
227418,348,465,354
227419,343,465,348
227420,338,465,343
227421,341,466,345
227422,347,466,354
227423,355,466,362
227424,360,467,371
227425,365,467,376
227426,371,468,382
227427,375,466,388
227428,381,469,396
227429,387,466,402
227430,392,467,406
227431,390,467,406
227432,384,469,396
227433,377,469,387
227434,370,466,378
227435,363,469,370
227436,360,467,368
227437,356,469,364
227438,351,468,358
227439,345,468,348
227440,340,469,344
227441,344,467,348
227442,349,470,355
227443,354,469,364
227444,364,470,373
227445,368,470,379
227446,373,467,385
227447,377,469,390
227448,382,467,396
227449,386,470,402
227450,392,469,408
227451,391,468,406
227452,383,470,396
227453,376,469,386
227454,369,469,378
227455,363,469,371
227456,360,468,366
227457,357,467,363
227458,350,469,355
227459,344,466,348
227460,339,468,342
227461,341,466,348
227462,348,468,356
227463,352,469,364
227464,361,467,373
227465,368,467,379
227466,371,468,384
227467,374,467,388
227468,380,470,395
227469,387,467,402
227470,390,466,407
227471,388,467,404
227472,380,468,395
227473,375,468,386
227474,367,464,377
227475,362,465,370
227476,358,463,364
227477,354,467,360
227478,350,466,354
227479,343,465,348
227480,337,465,342
227481,340,464,345
227482,345,463,353
227483,353,465,360
227484,359,466,371
227485,365,464,375
227486,371,463,382
227487,374,463,384
227488,378,464,392
227489,384,462,399
227490,388,464,405
227491,388,465,402
227492,382,464,391
227493,374,463,382
227494,367,462,375
227495,360,464,367
227496,356,463,363
227497,351,462,358
227498,347,461,354
227499,342,462,345
227500,337,462,339
227501,338,461,343
227502,343,464,352
227503,351,460,359
227504,358,459,367
227505,363,460,374
227506,366,461,377
227507,372,462,384
227508,376,460,390
227509,380,463,397
227510,386,462,403
227511,385,461,400
227512,379,461,392
227513,372,462,381
227514,365,462,375
227515,359,462,368
227516,354,462,362
227517,352,461,357
227518,347,459,352
227519,341,460,343
227520,335,461,339
227521,335,460,343
227522,343,459,350
227523,350,460,357
227524,356,458,366
227525,362,459,373
227526,366,462,378
227527,371,460,381
227528,374,460,387
227529,382,460,395
227530,384,460,401
227531,383,458,398
227532,379,459,390
227533,370,460,379
227534,363,459,371
227535,357,459,364
227536,354,460,361
227537,349,459,355
227538,345,457,350
227539,337,460,342
227540,334,458,337
227541,335,459,340
227542,341,459,346
227543,348,457,357
227544,355,455,366
227545,361,458,373
227546,365,459,377
227547,369,460,383
227548,374,460,387
227549,380,460,396
227550,385,459,401
227551,384,461,400
227552,378,460,391
227553,372,459,384
227554,362,458,374
227555,358,460,366
227556,355,461,362
227557,350,459,356
227558,344,460,350
227559,339,461,343
227560,334,461,338
227561,335,460,342
227562,341,461,350
227563,350,458,360
227564,356,462,368
227565,362,462,375
227566,366,461,379
227567,371,460,384
227568,376,462,390
227569,383,462,398
227570,387,462,401
227571,386,461,401
227572,381,461,392
227573,373,462,383
227574,365,459,374
227575,360,461,369
227576,356,462,362
227577,351,459,357
227578,348,461,352
227579,340,458,343
227580,335,461,338
227581,336,461,343
227582,341,457,349
227583,347,460,357
227584,357,460,367
227585,361,459,373
227586,366,459,378
227587,370,461,382
227588,374,456,387
227589,380,460,394
227590,386,460,402
227591,384,459,398
227592,377,459,391
227593,370,458,383
227594,363,460,371
227595,357,459,365
227596,353,460,360
227597,349,460,355
227598,344,458,350
227599,338,456,341
227600,334,457,337
227601,335,461,339
227602,340,457,347
227603,346,458,354
227604,353,457,364
227605,358,457,371
227606,364,457,375
227607,369,456,380
227608,372,458,385
227609,378,454,395
227610,384,457,399
227611,384,457,397
227612,378,457,390
227613,370,456,378
227614,362,457,371
227615,356,458,364
227616,351,458,359
227617,347,457,353
227618,344,456,348
227619,337,456,340
227620,332,455,335
227621,332,458,336
227622,339,456,345
227623,346,454,355
227624,352,454,361
227625,359,455,367
227626,362,455,374
227627,367,455,380
227628,372,455,385
227629,378,456,392
227630,383,453,398
227631,383,455,396
227632,375,456,388
227633,370,455,378
227634,360,455,368
227635,354,455,360
227636,350,456,357
227637,345,454,352
227638,341,451,347
227639,336,453,339
227640,330,455,335
227641,332,454,337
227642,337,455,344
227643,342,454,354
227644,351,450,362
227645,359,454,369
227646,361,453,372
227647,367,454,379
227648,370,454,384
227649,377,454,392
227650,381,454,397
227651,381,455,394
227652,375,455,387
227653,367,455,378
227654,360,454,368
227655,356,455,361
227656,352,456,358
227657,347,454,353
227658,342,454,348
227659,335,455,340
227660,330,455,335
227661,329,455,338
227662,338,457,343
227663,344,454,353
227664,352,455,362
227665,358,455,370
227666,361,457,375
227667,366,455,380
227668,370,452,384
227669,377,452,392
227670,384,455,398
227671,383,457,397
227672,376,454,387
227673,368,458,380
227674,362,456,371
227675,357,457,363
227676,354,457,359
227677,347,457,354
227678,344,458,350
227679,336,456,341
227680,332,456,335
227681,334,458,336
227682,339,454,346
227683,345,456,355
227684,354,459,364
227685,359,457,371
227686,363,458,376
227687,369,456,381
227688,371,456,386
227689,380,459,393
227690,384,458,399
227691,383,458,399
227692,377,459,390
227693,371,459,380
227694,362,460,372
227695,357,462,365
227696,353,459,360
227697,350,459,356
227698,346,459,350
227699,337,456,343
227700,333,460,337
227701,334,460,341
227702,340,459,347
227703,347,457,356
227704,354,460,364
227705,361,459,371
227706,364,456,375
227707,368,459,382
227708,373,458,385
227709,380,458,396
227710,385,460,400
227711,383,458,399
227712,377,460,391
227713,371,460,382
227714,363,461,374
227715,357,460,365
227716,353,459,362
227717,348,460,355
227718,345,459,350
227719,339,460,343
227720,333,460,336
227721,334,459,339
227722,341,458,348
227723,348,457,354
227724,355,458,365
227725,361,459,372
227726,365,456,376
227727,369,458,382
227728,373,459,386
227729,380,460,394
227730,385,458,401
227731,384,457,398
227732,377,457,389
227733,371,459,382
227734,363,460,374
227735,355,458,365
227736,353,460,361
227737,351,460,357
227738,346,455,351
227739,338,458,342
227740,333,459,338
227741,334,457,339
227742,341,459,348
227743,348,458,356
227744,354,457,366
227745,360,456,371
227746,364,460,377
227747,369,458,381
227748,373,458,386
227749,379,459,395
227750,384,457,400
227751,384,459,399
227752,377,459,390
227753,370,459,382
227754,362,459,372
227755,357,459,366
227756,353,460,360
227757,348,458,355
227758,345,458,349
227759,337,459,344
227760,333,459,337
227761,333,460,338
227762,341,458,347
227763,347,459,355
227764,355,459,365
227765,361,459,373
227766,366,458,378
227767,370,460,382
227768,374,458,387
227769,380,464,394
227770,384,459,401
227771,384,460,399
227772,379,460,391
227773,373,458,383
227774,365,458,373
227775,359,459,366
227776,354,460,363
227777,349,463,356
227778,345,458,352
227779,339,460,343
227780,334,460,337
227781,335,458,341
227782,341,459,349
227783,348,463,357
227784,355,460,365
227785,361,462,371
227786,365,461,377
227787,371,458,383
227788,376,460,387
227789,382,461,397
227790,388,462,402
227791,386,458,400
227792,379,461,392
227793,374,460,383
227794,365,459,375
227795,359,462,366
227796,355,461,361
227797,349,458,356
227798,347,460,353
227799,340,460,345
227800,335,461,338
227801,335,458,344
227802,343,463,352
227803,349,459,360
227804,356,460,367
227805,363,461,374
227806,366,459,377
227807,370,458,384
227808,374,460,388
227809,382,463,396
227810,388,460,403
227811,386,461,398
