Time (ms),Bicep,Shoulder,Tricep
153330,375,461,388
153331,385,461,401
153332,390,465,406
153333,393,466,408
153334,387,465,400
153335,381,465,392
153336,370,465,379
153337,364,461,372
153338,361,467,366
153339,352,464,359
153340,347,466,353
153341,340,464,346
153342,335,462,337
153343,333,463,338
153344,340,464,344
153345,343,462,354
153346,354,463,366
153347,362,463,375
153348,365,460,380
153349,373,464,386
153350,376,462,390
153351,385,462,400
153352,391,463,407
153353,392,465,407
153354,386,464,400
153355,381,463,392
153356,369,465,380
153357,364,466,370
153358,359,465,366
153359,353,464,360
153360,348,463,356
153361,340,464,343
153362,336,464,339
153363,334,463,337
153364,340,463,346
153365,344,461,352
153366,355,462,366
153367,361,462,373
153368,366,463,379
153369,372,462,386
153370,375,463,388
153371,383,461,399
153372,392,463,406
153373,392,463,407
153374,386,465,398
153375,380,467,390
153376,370,467,380
153377,365,467,371
153378,360,462,368
153379,354,464,361
153380,350,467,357
153381,342,466,347
153382,335,464,340
153383,334,462,338
153384,339,463,346
153385,345,460,354
153386,354,462,365
153387,362,459,373
153388,365,462,377
153389,370,459,384
153390,375,462,390
153391,384,461,399
153392,390,464,407
153393,390,463,406
153394,386,462,397
153395,379,460,389
153396,371,464,378
153397,363,463,370
153398,359,464,365
153399,353,462,358
153400,349,464,355
153401,341,463,345
153402,334,463,338
153403,333,463,337
153404,339,463,347
153405,345,463,354
153406,352,461,364
153407,360,461,371
153408,364,461,377
153409,372,460,385
153410,375,461,389
153411,385,461,400
153412,393,463,405
153413,392,461,404
153414,388,463,398
153415,381,463,390
153416,369,463,378
153417,365,465,370
153418,358,466,366
153419,353,464,359
153420,349,466,354
153421,340,466,345
153422,336,464,338
153423,331,462,338
153424,340,466,345
153425,345,461,354
153426,351,463,363
153427,360,461,374
153428,366,462,378
153429,371,460,384
153430,373,459,388
153431,384,457,399
153432,388,461,404
153433,389,457,405
153434,386,461,396
153435,379,463,389
153436,370,463,377
153437,364,464,369
153438,357,463,365
153439,352,462,357
153440,347,461,354
153441,340,462,344
153442,334,463,337
153443,333,462,336
153444,337,462,344
153445,345,462,353
153446,352,461,365
153447,359,460,370
153448,365,462,377
153449,371,461,386
153450,375,460,389
153451,385,462,400
153452,392,461,405
153453,392,460,406
153454,386,463,397
153455,379,461,390
153456,369,464,379
153457,364,463,370
153458,359,462,366
153459,352,464,357
153460,348,465,354
153461,340,462,344
153462,336,461,338
153463,333,462,338
153464,337,460,345
153465,344,460,351
153466,352,459,364
153467,359,458,371
153468,363,460,376
153469,369,459,382
153470,374,459,386
153471,384,461,398
153472,387,460,405
153473,389,461,405
153474,385,459,398
153475,378,460,389
153476,369,462,376
153477,363,462,370
153478,358,462,364
153479,352,459,357
153480,347,462,353
153481,341,461,344
153482,334,461,336
153483,332,460,335
153484,338,459,342
153485,343,459,352
153486,353,459,364
153487,359,459,371
153488,362,456,375
153489,370,455,384
153490,372,457,387
153491,382,461,397
153492,388,459,404
153493,389,460,405
153494,386,461,397
153495,380,464,388
153496,369,462,378
153497,362,462,370
153498,358,462,364
153499,350,462,356
153500,349,461,353
153501,339,460,343
153502,332,460,336
153503,331,457,334
153504,336,456,343
153505,341,458,350
153506,352,459,362
153507,357,458,369
153508,364,459,376
153509,370,457,382
153510,373,461,388
153511,382,459,398
153512,387,462,406
153513,390,462,405
153514,384,462,398
153515,379,462,390
153516,369,462,378
153517,363,462,370
153518,358,462,365
153519,352,460,358
153520,347,461,354
153521,340,462,342
153522,335,460,336
153523,332,460,335
153524,336,459,344
153525,343,457,351
153526,352,459,363
153527,357,458,369
153528,364,457,375
153529,369,457,383
153530,373,460,386
153531,380,458,396
153532,388,459,402
153533,390,459,404
153534,385,460,398
153535,378,462,389
153536,368,460,377
153537,362,462,370
153538,357,463,364
153539,353,464,359
153540,351,464,356
153541,339,464,345
153542,335,465,338
153543,334,464,338
153544,338,464,346
153545,344,464,353
153546,355,464,365
153547,361,462,372
153548,365,459,378
153549,371,460,384
153550,375,458,389
153551,382,462,398
153552,388,460,405
153553,391,460,405
153554,386,461,397
153555,379,463,391
153556,370,462,378
153557,363,465,370
153558,358,463,367
153559,354,462,359
153560,348,462,354
153561,341,459,345
153562,335,461,338
153563,333,460,337
153564,336,461,343
153565,342,461,352
153566,351,460,362
153567,359,460,369
153568,364,458,377
153569,370,460,382
153570,372,460,386
153571,381,459,398
153572,388,463,403
153573,390,460,405
153574,386,461,398
153575,379,462,390
153576,370,463,378
153577,361,464,371
153578,358,462,365
153579,352,464,360
153580,348,462,355
153581,341,461,343
153582,335,460,340
153583,331,459,336
153584,336,462,343
153585,342,461,352
153586,352,458,364
153587,358,459,371
153588,365,459,376
153589,370,459,383
153590,372,460,385
153591,382,459,397
153592,389,458,405
153593,391,461,406
153594,385,460,397
153595,379,462,390
153596,370,462,378
153597,364,463,370
153598,357,463,364
153599,351,462,358
153600,347,460,353
153601,339,461,343
153602,334,458,336
153603,331,459,336
153604,335,459,343
153605,342,458,350
153606,352,459,363
153607,357,457,369
153608,363,459,374
153609,369,458,383
153610,373,457,386
153611,382,459,397
153612,387,460,403
153613,391,457,404
153614,385,460,398
153615,380,461,389
153616,370,461,378
153617,363,461,371
153618,357,460,364
153619,352,460,358
153620,348,460,353
153621,339,462,342
153622,333,460,337
153623,332,459,336
153624,336,460,342
153625,340,459,351
153626,351,458,362
153627,356,457,368
153628,362,458,373
153629,368,457,382
153630,372,457,386
153631,379,458,395
153632,385,460,402
153633,388,460,402
153634,383,461,396
153635,377,459,388
153636,369,462,377
153637,363,460,370
153638,358,457,364
153639,351,461,358
153640,348,461,353
153641,338,462,342
153642,333,458,336
153643,331,459,335
153644,335,457,341
153645,342,458,349
153646,349,458,361
153647,357,457,368
153648,362,456,373
153649,368,456,382
153650,372,457,386
153651,379,459,394
153652,386,456,401
153653,387,457,404
153654,383,459,396
153655,377,459,389
153656,369,461,376
153657,361,459,369
153658,357,457,364
153659,351,459,356
153660,347,460,353
153661,338,461,342
153662,331,459,335
153663,329,459,335
153664,335,458,341
153665,341,457,349
153666,350,458,361
153667,357,456,367
153668,362,457,372
153669,368,457,380
153670,372,457,385
153671,380,457,396
153672,388,459,402
153673,389,460,403
153674,383,460,395
153675,377,459,389
153676,367,459,376
153677,363,460,370
153678,356,460,363
153679,350,460,356
153680,345,460,353
153681,338,458,343
153682,334,459,336
153683,330,459,334
153684,335,458,340
153685,342,456,349
153686,350,457,362
153687,356,458,369
153688,362,458,374
153689,367,458,380
153690,371,456,384
153691,379,457,396
153692,386,457,402
153693,388,459,404
153694,383,459,396
153695,379,459,388
153696,368,460,377
153697,362,458,369
153698,357,459,363
153699,351,461,357
153700,345,460,350
153701,337,457,341
153702,333,459,336
153703,331,458,334
153704,334,458,342
153705,339,458,350
153706,350,457,361
153707,355,457,367
153708,359,456,374
153709,367,458,380
153710,369,458,384
153711,380,454,394
153712,385,457,402
153713,390,460,404
153714,385,457,397
153715,378,457,390
153716,368,461,375
153717,362,461,369
153718,356,460,364
153719,349,455,355
153720,346,459,353
153721,338,457,342
153722,333,457,336
153723,329,456,334
153724,333,457,341
153725,341,458,348
153726,349,455,361
153727,356,455,367
153728,361,456,373
153729,366,456,379
153730,369,456,383
153731,379,456,393
153732,384,457,400
153733,386,460,402
153734,383,459,395
153735,377,459,386
153736,368,458,376
153737,361,460,369
153738,356,459,363
153739,350,457,357
153740,346,458,351
153741,338,458,342
153742,331,456,336
153743,328,457,333
153744,333,456,339
153745,340,455,347
153746,347,454,360
153747,355,457,367
153748,361,456,372
153749,366,455,380
153750,370,453,383
153751,378,457,394
153752,386,457,399
153753,388,457,403
153754,382,458,395
153755,376,456,387
153756,366,459,375
153757,362,459,367
153758,354,460,362
153759,350,457,356
153760,346,458,351
153761,339,459,342
153762,331,457,335
153763,329,455,335
153764,334,457,339
153765,339,458,348
153766,347,455,360
153767,356,456,367
153768,361,455,372
153769,367,457,380
153770,370,455,382
153771,378,457,393
153772,384,458,399
153773,388,457,402
153774,382,459,394
153775,378,457,388
153776,367,458,376
153777,362,456,368
153778,355,459,361
153779,350,456,356
153780,347,459,351
153781,337,459,343
153782,333,457,335
153783,329,457,333
153784,333,456,339
153785,338,456,348
153786,348,456,358
153787,355,456,366
153788,360,457,372
153789,366,456,378
153790,370,455,384
153791,377,456,393
153792,385,457,400
153793,389,458,401
153794,383,457,396
153795,376,458,387
153796,368,456,376
153797,362,457,368
153798,356,458,362
153799,349,459,355
153800,345,457,350
153801,337,457,342
153802,332,456,336
153803,328,457,333
153804,333,457,340
153805,339,456,347
153806,348,456,359
153807,356,454,367
153808,360,455,372
153809,366,456,379
153810,369,453,383
153811,378,455,393
153812,385,456,399
153813,387,457,404
153814,384,455,396
153815,377,458,386
153816,367,458,375
153817,361,457,369
153818,356,458,361
153819,350,457,356
153820,345,457,351
153821,337,457,341
153822,331,457,334
153823,329,456,332
153824,333,455,339
153825,339,455,348
153826,348,455,359
153827,353,455,364
153828,359,455,371
153829,365,454,377
153830,368,455,382
153831,377,453,394
153832,383,456,398
153833,387,457,403
153834,383,459,396
153835,378,455,386
153836,366,457,375
153837,359,454,370
153838,355,458,362
153839,350,456,353
153840,348,458,352
153841,337,455,342
153842,332,457,335
153843,328,456,332
153844,333,457,338
153845,340,454,347
153846,348,455,358
153847,355,455,365
153848,360,454,373
153849,366,456,378
153850,368,455,382
153851,376,452,392
153852,383,456,399
153853,387,456,401
153854,382,456,395
153855,377,458,389
153856,368,458,376
153857,361,456,367
153858,355,457,360
153859,350,458,357
153860,347,458,353
153861,338,457,342
153862,333,456,336
153863,328,458,332
153864,332,456,339
153865,339,454,347
153866,347,458,358
153867,354,455,365
153868,360,456,373
153869,365,456,378
153870,369,456,383
153871,376,456,392
153872,385,457,400
153873,387,456,403
153874,385,458,396
153875,378,460,388
153876,369,458,377
153877,361,460,370
153878,356,458,365
153879,350,459,357
153880,346,458,354
153881,338,456,343
153882,333,460,337
153883,330,460,333
153884,335,458,341
153885,340,459,349
153886,349,458,360
153887,353,458,368
153888,362,457,373
153889,367,458,380
153890,371,457,383
153891,379,458,394
153892,385,456,400
153893,388,460,404
153894,385,458,397
153895,379,459,389
153896,369,461,378
153897,362,461,369
153898,356,462,363
153899,352,462,357
153900,348,461,354
153901,341,460,343
153902,335,460,337
153903,331,457,336
153904,335,460,342
153905,341,460,347
153906,349,458,359
153907,356,459,369
153908,361,459,373
153909,366,461,381
153910,371,455,384
153911,380,459,395
153912,385,458,400
153913,390,460,405
153914,386,457,398
153915,380,461,392
153916,371,463,380
153917,365,462,373
153918,359,460,365
153919,354,463,359
153920,349,460,356
153921,342,462,344
153922,335,460,339
153923,332,460,335
153924,336,461,342
153925,344,461,349
153926,351,458,361
153927,357,460,369
153928,362,459,376
153929,369,460,382
153930,371,457,385
153931,381,461,395
153932,387,461,403
153933,390,463,407
153934,386,457,399
153935,382,463,391
153936,370,464,380
153937,367,463,373
153938,359,465,367
153939,354,463,360
153940,351,466,357
153941,343,463,347
153942,336,465,341
153943,332,464,339
153944,337,464,344
153945,345,462,352
153946,353,463,362
153947,360,462,370
153948,366,463,377
153949,370,461,385
153950,376,462,388
153951,381,463,398
153952,389,463,404
153953,393,463,408
153954,388,462,401
153955,383,464,395
153956,375,466,383
153957,368,465,376
153958,363,465,369
153959,356,465,362
153960,353,467,360
153961,345,468,349
153962,339,469,344
153963,336,465,340
153964,338,465,345
153965,345,467,354
153966,354,466,364
153967,361,466,373
153968,367,455,379
153969,371,466,387
153970,376,465,391
153971,385,466,398
153972,391,467,408
153973,395,468,411
153974,392,468,406
153975,386,470,397
153976,376,468,385
153977,370,469,379
153978,364,469,370
153979,359,472,365
153980,356,470,361
153981,347,466,351
153982,340,469,344
153983,338,470,341
153984,339,467,347
153985,348,465,355
153986,356,463,366
153987,361,468,373
153988,368,466,380
153989,374,468,388
153990,379,464,392
153991,385,466,401
153992,391,468,407
153993,394,465,410
153994,392,469,406
153995,386,470,399
153996,376,467,386
153997,370,467,377
153998,363,469,371
153999,358,469,365
154000,355,470,361
154001,346,467,351
154002,341,467,344
154003,338,468,341
154004,340,467,347
154005,345,466,353
154006,354,467,364
154007,360,465,371
154008,366,465,380
154009,374,465,386
154010,378,464,389
154011,385,462,399
154012,389,466,405
154013,393,467,410
154014,391,469,405
154015,385,468,396
154016,375,465,385
154017,370,467,378
154018,363,465,370
154019,358,468,365
154020,354,467,360
154021,345,466,350
154022,340,464,344
154023,336,467,339
154024,339,463,346
154025,343,465,352
154026,353,466,363
154027,359,464,369
154028,365,465,379
154029,372,462,385
154030,375,462,390
154031,383,465,399
154032,389,467,405
154033,394,466,409
154034,391,464,405
154035,385,467,396
154036,375,466,384
154037,369,469,377
154038,362,469,370
154039,358,468,364
154040,352,467,358
154041,345,466,349
154042,339,466,343
154043,335,466,339
154044,338,464,345
154045,345,465,353
154046,356,465,363
154047,361,464,372
154048,367,464,378
154049,372,465,383
154050,376,463,387
154051,383,465,398
154052,389,465,404
154053,392,464,408
154054,389,464,404
154055,384,466,395
154056,375,467,385
154057,366,467,376
154058,363,467,369
154059,357,467,363
154060,352,465,359
154061,345,466,349
154062,339,466,342
154063,335,466,339
154064,338,467,344
154065,344,464,353
154066,352,464,363
154067,359,464,370
154068,365,464,377
154069,371,464,384
154070,375,463,389
154071,382,462,398
154072,388,461,405
154073,393,466,408
154074,390,466,404
154075,384,466,394
154076,375,468,384
154077,368,466,378
154078,361,467,369
154079,357,467,363
154080,352,467,358
154081,345,466,348
154082,339,466,344
154083,335,465,338
154084,337,463,344
154085,344,463,352
154086,354,464,364
154087,359,461,370
154088,366,462,377
154089,370,464,383
154090,374,464,387
154091,382,463,397
154092,389,464,404
154093,393,464,409
154094,389,466,402
154095,383,466,394
154096,377,465,382
154097,367,465,376
154098,362,466,368
154099,357,465,363
154100,352,466,358
154101,345,465,350
154102,339,465,342
154103,335,464,339
154104,337,461,341
154105,343,461,351
154106,353,458,362
154107,358,461,369
154108,364,463,375
154109,370,463,382
154110,373,463,387
154111,382,463,397
154112,388,463,403
154113,393,464,407
154114,389,463,403
154115,382,464,394
154116,373,463,382
154117,368,466,375
154118,360,465,368
154119,354,463,360
154120,351,466,358
154121,344,464,349
154122,337,463,342
154123,334,461,338
154124,334,464,342
154125,342,464,350
154126,351,461,361
154127,358,461,369
154128,364,462,377
154129,370,460,382
154130,374,461,387
154131,381,459,397
154132,388,463,404
154133,392,465,408
154134,388,464,402
154135,383,463,394
154136,374,465,383
154137,368,464,375
154138,360,467,368
154139,356,465,363
154140,351,463,357
154141,343,465,350
154142,336,462,341
154143,333,464,339
154144,336,463,344
154145,343,462,352
154146,350,464,361
154147,358,461,368
154148,363,463,376
154149,368,462,383
154150,374,462,386
154151,381,462,396
154152,387,463,402
154153,391,464,407
154154,389,464,403
154155,382,464,393
154156,375,464,383
154157,367,463,375
154158,360,464,368
154159,355,466,360
154160,352,459,355
154161,344,464,348
154162,338,464,340
154163,334,462,336
154164,335,463,342
154165,340,463,349
154166,351,460,360
154167,358,462,370
154168,363,462,377
154169,369,461,382
154170,372,462,387
154171,380,463,395
154172,386,460,404
154173,390,462,406
154174,390,460,402
154175,382,460,394
154176,374,463,381
154177,366,463,375
154178,360,464,367
154179,355,464,361
154180,351,463,356
154181,344,463,349
154182,339,460,342
154183,333,463,338
154184,335,459,341
154185,341,462,349
154186,349,462,359
154187,358,462,367
154188,363,461,375
154189,369,460,380
154190,373,461,385
154191,379,461,395
154192,387,462,402
154193,391,462,407
154194,388,464,402
154195,380,463,392
154196,372,465,382
154197,366,466,375
154198,359,465,367
154199,355,465,361
154200,351,464,357
154201,344,464,348
154202,336,466,341
154203,332,460,337
154204,335,461,342
154205,343,462,350
154206,349,461,362
154207,355,461,368
154208,364,463,376
154209,369,463,380
154210,373,459,386
154211,380,462,396
154212,387,463,402
154213,391,462,406
154214,389,462,403
154215,382,462,393
154216,375,463,384
154217,367,463,376
154218,359,464,368
154219,355,465,362
154220,351,466,358
154221,343,461,348
154222,337,464,341
154223,333,461,336
154224,334,463,341
154225,340,460,349
154226,349,461,360
154227,358,459,368
154228,364,457,375
154229,368,460,380
154230,372,461,385
154231,381,462,394
154232,387,461,403
154233,391,460,406
154234,389,462,402
154235,384,463,392
154236,375,463,382
154237,367,464,375
154238,361,463,367
154239,355,464,362
154240,351,464,358
154241,344,463,347
154242,338,463,342
154243,333,463,337
154244,334,460,341
154245,342,462,347
154246,350,462,360
154247,358,459,367
154248,364,459,376
154249,368,458,381
154250,372,461,385
154251,378,459,395
154252,385,462,401
154253,391,462,405
154254,388,464,403
154255,381,463,394
154256,372,463,382
154257,366,460,374
154258,359,464,366
154259,353,463,361
154260,350,463,356
154261,344,462,347
154262,336,462,341
154263,332,461,337
154264,335,460,341
154265,340,460,350
154266,349,461,361
154267,356,460,368
154268,362,460,374
154269,367,461,381
154270,370,458,385
154271,378,460,395
154272,385,461,401
154273,391,462,406
154274,387,462,403
154275,382,462,393
154276,374,462,381
154277,367,463,373
154278,360,464,366
154279,355,463,361
154280,350,463,357
154281,344,464,348
154282,337,462,341
154283,333,463,337
154284,335,462,340
154285,340,461,348
154286,347,459,358
154287,356,460,366
154288,362,460,373
154289,368,460,379
154290,372,459,384
154291,378,461,394
154292,386,462,400
154293,391,463,406
154294,388,462,402
154295,382,464,395
154296,373,464,382
154297,367,464,375
154298,361,465,368
154299,354,460,361
154300,351,464,357
154301,345,463,349
154302,338,460,342
154303,333,462,338
154304,335,463,342
154305,339,462,348
154306,349,461,359
154307,356,459,367
154308,363,461,375
154309,369,461,382
154310,372,457,385
154311,380,461,395
154312,386,460,401
154313,390,460,407
154314,388,463,403
154315,382,462,394
154316,374,462,383
154317,367,463,375
154318,360,462,367
154319,355,465,361
154320,349,462,355
154321,342,462,349
154322,336,461,341
154323,331,462,336
154324,334,462,340
154325,340,462,350
154326,348,460,359
154327,356,459,367
154328,364,460,376
154329,368,460,380
154330,372,461,384
154331,377,461,393
154332,385,458,401
154333,390,461,406
154334,389,462,402
154335,382,462,394
154336,374,463,383
154337,365,462,375
154338,358,463,367
154339,353,463,362
154340,349,462,357
154341,344,463,349
154342,337,463,342
154343,332,463,336
154344,334,460,340
154345,340,463,348
154346,347,461,358
154347,354,463,367
154348,362,461,376
154349,370,461,381
154350,374,460,385
154351,379,461,394
154352,385,461,402
154353,391,463,406
154354,388,462,401
154355,382,463,394
154356,374,463,383
154357,367,466,374
154358,359,464,367
154359,355,463,361
154360,350,464,358
154361,344,464,348
154362,338,463,341
154363,333,461,337
154364,334,461,340
154365,340,461,348
154366,349,461,360
154367,357,461,367
154368,362,460,375
154369,367,459,381
154370,372,459,384
154371,379,460,392
154372,388,459,402
154373,391,461,405
154374,390,463,402
154375,382,463,394
154376,375,465,385
154377,367,462,374
154378,360,463,367
154379,357,464,362
154380,352,461,358
154381,345,462,349
154382,338,462,342
154383,333,464,338
154384,335,463,339
154385,341,463,350
154386,349,462,359
154387,357,462,369
154388,364,462,376
154389,369,461,382
154390,374,461,385
154391,379,460,395
154392,386,462,401
154393,392,463,406
154394,391,461,403
154395,384,465,395
154396,374,465,384
154397,367,465,376
154398,360,465,368
154399,355,464,363
154400,351,463,358
154401,345,462,351
154402,338,463,342
154403,333,463,337
154404,334,463,340
154405,341,460,350
154406,349,459,359
154407,357,460,367
154408,363,461,374
154409,369,458,381
154410,371,457,386
154411,378,460,394
154412,386,462,402
154413,390,462,407
154414,390,463,403
154415,382,462,394
154416,374,465,384
154417,366,462,376
154418,360,466,367
154419,356,464,362
154420,351,465,357
154421,344,464,348
154422,337,463,342
154423,333,463,338
154424,334,461,339
154425,340,462,349
154426,348,461,358
154427,356,461,367
154428,360,461,375
154429,367,461,379
154430,371,462,384
154431,379,458,393
154432,386,464,401
154433,391,462,407
154434,390,464,403
154435,382,465,394
154436,375,466,385
154437,368,461,375
154438,361,465,369
154439,355,464,364
154440,352,464,359
154441,345,462,350
154442,339,463,342
154443,333,462,338
154444,335,463,340
154445,341,463,349
154446,350,462,360
154447,357,463,368
154448,364,461,375
154449,368,460,381
154450,372,459,386
154451,379,460,394
154452,386,462,401
154453,392,461,406
154454,390,461,403
154455,383,464,395
154456,375,465,385
154457,369,465,377
154458,361,464,368
154459,357,465,363
154460,351,465,357
154461,345,463,351
154462,337,464,341
154463,333,463,337
154464,335,463,340
154465,342,463,348
154466,349,460,358
154467,357,463,368
154468,364,462,375
154469,368,462,380
154470,372,461,386
154471,378,462,393
154472,385,464,401
154473,390,464,406
154474,389,463,404
154475,382,463,396
154476,374,463,385
154477,368,464,375
154478,360,463,368
154479,356,465,362
154480,351,463,356
154481,343,463,349
154482,336,464,341
154483,335,461,337
154484,335,461,340
154485,340,462,348
154486,346,460,358
154487,356,458,367
154488,363,460,375
154489,367,463,380
154490,372,462,385
154491,377,459,394
154492,385,461,403
154493,391,463,407
154494,389,463,404
154495,382,465,396
154496,375,465,385
154497,368,466,375
154498,361,463,368
154499,356,463,363
154500,351,463,357
154501,346,466,350
154502,336,463,342
154503,332,463,337
154504,334,462,340
154505,340,461,347
154506,349,462,359
154507,357,462,365
154508,362,460,375
154509,367,460,380
154510,373,462,385
154511,378,462,393
154512,387,462,403
154513,390,463,406
154514,391,462,404
154515,385,463,396
154516,376,464,385
154517,368,463,377
154518,362,462,368
154519,357,465,362
154520,352,464,356
154521,347,463,351
154522,339,464,344
154523,333,463,338
154524,333,462,340
154525,340,463,349
154526,347,460,358
154527,353,462,366
154528,362,461,374
154529,368,461,379
154530,371,460,384
154531,376,460,391
154532,385,463,400
154533,391,461,405
154534,388,462,403
154535,382,462,395
154536,375,463,385
154537,368,463,375
154538,360,462,366
154539,357,460,362
154540,351,462,357
154541,346,463,350
154542,338,462,341
154543,331,461,334
154544,332,460,337
154545,337,460,346
154546,346,460,356
154547,355,457,365
154548,361,461,373
154549,366,459,379
154550,371,456,383
154551,376,459,392
154552,384,459,399
154553,389,460,405
154554,389,460,401
154555,383,461,394
154556,374,462,385
154557,368,463,374
154558,361,459,366
154559,354,462,361
154560,351,461,356
154561,344,460,349
154562,336,459,341
154563,331,460,335
154564,331,459,338
154565,339,460,345
154566,347,458,354
154567,353,460,366
154568,360,457,373
154569,365,458,378
154570,370,454,384
154571,375,459,390
154572,384,456,398
154573,388,457,404
154574,388,455,401
154575,381,460,393
154576,374,461,382
154577,365,459,373
154578,358,456,365
154579,353,461,360
154580,350,461,354
154581,344,461,348
154582,335,461,340
154583,332,458,336
154584,333,459,337
154585,339,458,346
154586,347,460,355
154587,356,461,364
154588,362,459,372
154589,365,458,378
154590,369,458,384
154591,373,457,387
154592,383,457,398
154593,387,454,403
154594,387,458,400
154595,380,457,391
154596,371,459,382
154597,364,460,373
154598,359,457,364
154599,355,459,361
154600,350,462,354
154601,344,461,348
154602,336,460,340
154603,331,461,335
154604,333,461,337
154605,340,461,344
154606,347,461,357
154607,355,459,365
154608,360,459,373
154609,365,459,378
154610,370,458,383
154611,376,460,389
154612,383,457,399
154613,388,460,403
154614,388,460,403
154615,382,460,394
154616,375,458,384
154617,365,460,373
154618,361,461,367
154619,356,461,362
154620,352,461,355
154621,347,462,351
154622,338,464,342
154623,333,464,338
154624,335,466,339
154625,342,462,349
154626,348,460,359
154627,357,461,368
154628,363,462,375
154629,369,462,379
154630,372,462,386
154631,375,460,391
154632,385,463,401
154633,392,460,407
154634,389,462,404
154635,383,463,395
154636,377,462,387
154637,368,464,378
154638,363,462,370
154639,358,465,365
154640,353,464,357
154641,348,463,353
154642,339,465,344
154643,335,466,340
154644,336,465,341
154645,342,466,350
154646,347,466,358
154647,358,465,368
154648,363,464,375
154649,367,461,381
154650,371,462,387
154651,376,462,391
154652,387,463,401
154653,394,464,408
154654,392,466,403
154655,384,465,397
154656,377,465,387
154657,367,466,377
154658,362,467,370
154659,358,466,365
154660,354,467,360
154661,349,464,355
154662,339,466,344
154663,334,465,338
154664,334,462,341
154665,342,465,348
154666,350,462,359
154667,357,463,368
154668,364,463,377
154669,370,464,381
154670,373,462,387
154671,378,462,394
154672,386,464,403
154673,393,464,408
154674,391,465,406
154675,386,464,399
154676,379,466,387
154677,370,462,378
154678,364,465,370
154679,358,463,365
154680,354,466,359
154681,348,464,354
154682,339,466,346
154683,331,464,338
154684,334,464,340
154685,340,465,349
154686,350,464,358
154687,356,462,367
154688,364,462,376
154689,368,464,380
154690,373,463,386
154691,378,461,391
154692,387,462,402
154693,392,462,408
154694,391,461,406
154695,384,464,397
154696,379,463,387
154697,368,466,378
154698,363,464,369
154699,359,465,363
154700,353,464,358
154701,347,464,351
154702,339,464,342
154703,333,464,339
154704,334,461,340
154705,340,461,349
154706,346,462,357
154707,356,460,367
154708,363,461,374
154709,365,462,381
154710,371,461,387
154711,377,459,391
154712,386,463,401
154713,391,462,406
154714,391,462,405
154715,384,461,395
154716,377,461,386
154717,369,463,377
154718,363,462,369
154719,358,465,365
154720,353,464,358
154721,347,464,353
154722,339,463,342
154723,335,465,337
154724,336,463,339
154725,340,461,347
154726,349,462,355
154727,355,462,366
154728,362,459,375
154729,367,460,378
154730,371,461,385
154731,377,461,391
154732,386,462,402
154733,391,461,408
154734,391,463,404
154735,385,462,396
154736,376,464,387
154737,369,463,375
154738,363,464,369
154739,356,465,362
154740,352,465,358
154741,348,465,354
154742,340,466,344
154743,335,466,338
154744,335,465,339
154745,341,463,348
154746,348,464,358
154747,358,463,367
154748,362,458,375
154749,367,462,380
154750,372,462,385
154751,377,460,391
154752,385,463,402
154753,391,462,408
154754,392,464,405
154755,385,463,396
154756,379,466,387
154757,370,465,377
154758,362,466,370
154759,359,466,366
154760,353,466,359
154761,350,464,354
154762,341,464,344
154763,335,465,339
154764,336,465,341
154765,342,466,350
154766,349,466,358
154767,359,464,369
154768,364,465,377
154769,368,463,382
154770,373,465,388
154771,376,464,393
154772,386,465,401
154773,393,464,409
154774,393,466,407
154775,386,465,398
154776,379,466,389
154777,370,465,380
154778,364,466,371
154779,359,467,365
154780,353,465,360
154781,349,467,355
154782,341,463,345
154783,335,462,338
154784,334,464,339
154785,342,460,350
154786,349,464,359
154787,357,462,369
154788,364,464,375
154789,368,463,381
154790,373,464,387
154791,377,463,393
154792,388,462,403
154793,393,465,409
154794,393,466,406
154795,386,467,398
154796,380,465,389
154797,371,467,379
154798,364,467,371
154799,360,465,365
154800,353,466,360
154801,351,466,355
154802,339,465,345
154803,335,466,340
154804,334,464,339
154805,343,463,349
154806,348,463,357
154807,356,460,368
154808,362,463,375
154809,367,463,380
154810,372,462,385
154811,377,462,390
154812,387,463,401
154813,392,463,408
154814,391,464,406
154815,386,466,398
154816,379,464,388
154817,368,465,377
154818,363,464,370
154819,358,462,366
154820,351,464,360
154821,349,462,353
154822,341,462,343
154823,336,461,337
154824,334,462,339
154825,338,462,348
154826,345,461,355
154827,353,460,364
154828,362,461,372
154829,365,460,377
154830,371,461,384
154831,377,462,389
154832,385,460,399
154833,390,460,405
154834,391,462,404
154835,384,464,394
154836,376,463,386
154837,367,463,376
154838,362,461,367
154839,356,464,363
154840,352,462,358
154841,348,462,353
154842,337,461,342
154843,332,462,335
154844,332,461,337
154845,339,460,346
154846,345,459,354
154847,355,460,364
154848,360,459,373
154849,363,460,378
154850,370,459,384
154851,374,459,388
154852,383,459,399
154853,389,459,406
154854,391,462,404
154855,383,460,395
154856,377,463,386
154857,368,463,375
154858,360,462,369
154859,357,462,364
154860,351,463,356
154861,346,463,351
154862,338,461,340
154863,332,458,335
154864,331,457,337
154865,338,458,343
154866,344,454,354
154867,354,459,364
154868,359,458,372
154869,364,458,376
154870,368,458,384
154871,374,458,388
154872,383,458,397
154873,388,460,404
154874,388,460,402
154875,383,464,395
154876,376,461,386
154877,367,462,375
154878,359,461,367
154879,355,462,361
154880,350,458,355
154881,346,459,352
154882,339,462,341
154883,331,461,336
154884,332,461,338
154885,337,459,345
154886,345,461,354
154887,352,459,364
154888,360,457,372
154889,364,459,378
154890,371,459,384
154891,374,460,387
154892,382,457,399
154893,388,459,404
154894,389,460,403
154895,382,461,395
154896,375,460,385
154897,367,460,374
154898,360,461,367
154899,355,462,363
154900,350,459,356
154901,346,462,353
154902,338,460,342
154903,332,461,336
154904,331,456,337
154905,338,455,343
154906,344,457,354
154907,353,458,364
154908,359,458,372
154909,364,458,377
154910,369,456,384
154911,374,460,387
154912,384,458,399
154913,388,459,404
154914,390,460,404
154915,382,457,394
154916,375,463,384
154917,367,463,375
154918,360,461,367
154919,358,463,364
154920,350,460,356
154921,345,461,351
154922,335,459,342
154923,332,460,335
154924,331,460,335
154925,337,459,343
154926,344,458,352
154927,352,459,364
154928,359,455,370
154929,364,458,377
154930,369,456,383
154931,373,458,386
154932,381,458,397
154933,388,460,404
154934,389,460,403
154935,384,461,394
154936,376,460,387
154937,366,460,375
154938,360,461,367
154939,355,462,362
154940,350,460,355
154941,346,461,351
154942,336,460,342
154943,332,461,335
154944,331,460,336
154945,337,460,345
154946,345,460,353
154947,353,458,364
154948,359,460,370
154949,364,458,376
154950,368,459,383
154951,373,461,388
154952,383,459,398
154953,389,459,404
154954,389,461,404
154955,383,460,395
154956,376,462,387
154957,367,462,374
154958,359,461,369
154959,358,461,364
154960,352,463,357
154961,347,463,352
154962,339,463,344
154963,333,461,336
154964,333,460,336
154965,338,460,344
154966,344,458,354
154967,353,459,366
154968,359,459,372
154969,365,456,376
154970,370,457,382
154971,373,459,386
154972,382,458,399
154973,388,460,404
154974,388,459,403
154975,383,461,395
154976,376,463,387
154977,367,462,375
154978,361,462,369
154979,357,459,363
154980,350,461,356
154981,347,461,351
154982,338,462,341
154983,334,460,335
154984,332,460,337
154985,338,457,346
154986,344,458,352
154987,354,456,364
154988,359,458,372
154989,364,458,376
154990,370,460,383
154991,374,459,388
154992,383,460,398
154993,389,461,404
154994,390,458,403
154995,384,461,396
154996,376,462,385
154997,366,459,376
154998,361,461,368
154999,356,462,364
155000,348,462,357
155001,347,459,352
155002,337,461,342
155003,332,461,335
155004,332,459,337
155005,336,459,344
155006,344,461,352
155007,354,461,364
155008,359,461,372
155009,364,459,377
155010,370,459,384
155011,374,458,389
155012,383,463,399
155013,387,461,404
155014,390,460,403
155015,385,463,396
155016,377,460,388
155017,368,460,376
155018,361,462,369
155019,356,463,364
155020,352,461,357
155021,347,460,352
155022,338,460,342
155023,333,461,336
155024,331,459,337
155025,338,459,345
155026,345,459,353
155027,353,458,364
155028,359,456,372
155029,364,459,377
155030,370,459,383
155031,373,458,387
155032,384,460,399
155033,389,461,405
155034,390,461,404
155035,384,461,396
155036,377,459,387
155037,367,461,377
155038,361,458,368
155039,356,463,364
155040,351,460,356
155041,347,462,353
155042,336,460,342
155043,333,461,335
155044,332,460,337
155045,338,460,344
155046,344,460,354
155047,351,457,364
155048,358,457,372
155049,364,459,377
155050,369,457,383
155051,372,459,387
155052,382,459,396
155053,387,460,404
155054,389,462,405
155055,383,461,396
155056,377,462,387
155057,368,461,376
155058,361,458,368
155059,357,462,364
155060,350,462,356
155061,346,465,354
155062,337,462,343
155063,332,462,337
155064,332,461,335
155065,339,462,345
155066,344,459,353
155067,354,457,364
155068,360,457,372
155069,365,460,377
155070,371,459,385
155071,374,460,387
155072,384,458,398
155073,389,458,406
155074,390,461,403
155075,385,462,396
155076,379,462,387
155077,370,463,376
155078,363,463,371
155079,358,465,365
155080,352,464,358
155081,348,463,354
155082,338,463,342
155083,333,462,336
155084,333,463,338
155085,339,462,345
155086,343,460,354
155087,353,461,364
155088,360,459,371
155089,364,460,376
155090,371,458,383
155091,374,458,388
155092,383,459,397
155093,387,458,405
155094,390,461,405
155095,384,460,397
155096,378,460,389
155097,368,463,377
155098,364,464,369
155099,357,461,365
155100,351,464,357
155101,347,462,353
155102,339,463,343
155103,333,460,337
155104,332,460,337
155105,336,459,345
155106,343,460,354
155107,353,459,366
155108,360,459,372
155109,365,460,378
155110,370,459,385
155111,373,459,387
155112,382,459,398
155113,389,460,405
155114,391,459,406
155115,385,463,396
155116,379,461,387
155117,368,461,376
155118,362,463,369
155119,356,462,364
155120,351,461,358
155121,348,462,353
155122,338,463,342
155123,334,462,337
155124,330,463,336
155125,337,460,344
155126,344,459,353
155127,352,460,364
155128,358,459,372
155129,364,460,377
155130,369,460,381
155131,374,459,388
155132,385,461,398
155133,389,460,405
155134,390,462,404
155135,385,459,397
155136,379,463,390
155137,368,464,376
155138,364,464,370
155139,358,463,364
155140,352,464,358
155141,347,463,355
155142,339,465,343
155143,336,465,338
155144,335,464,339
155145,340,465,347
155146,345,462,355
155147,356,463,365
155148,361,464,373
155149,365,461,379
155150,371,460,385
155151,374,461,387
155152,383,460,398
155153,390,462,405
155154,391,461,405
155155,386,462,397
155156,378,463,388
155157,370,463,377
155158,363,462,370
155159,359,465,365
155160,351,463,358
155161,350,462,355
155162,339,462,342
155163,334,462,337
155164,332,460,338
155165,338,457,345
155166,344,458,352
155167,352,455,363
155168,359,456,372
155169,364,459,375
155170,369,460,381
155171,372,459,388
155172,384,457,398
155173,387,460,403
155174,391,460,404
155175,384,460,396
155176,378,462,386
155177,368,462,377
155178,362,461,368
155179,357,463,364
155180,351,461,356
155181,348,462,353
155182,339,462,343
155183,333,461,335
155184,331,460,336
155185,337,459,345
155186,342,459,352
155187,352,455,363
155188,358,459,369
155189,364,456,376
155190,370,459,382
155191,374,456,387
155192,383,461,397
155193,387,460,404
155194,389,459,403
155195,382,461,395
155196,378,462,386
155197,369,462,375
155198,361,460,368
155199,356,461,363
155200,350,461,356
155201,347,461,352
155202,338,462,342
155203,333,460,336
155204,332,460,336
155205,336,459,344
155206,341,459,352
155207,351,459,363
155208,357,459,369
155209,363,458,374
155210,369,460,381
155211,374,457,385
155212,380,462,396
155213,387,462,404
155214,390,461,405
155215,384,461,397
155216,378,461,389
155217,368,461,376
155218,361,463,369
155219,356,461,363
155220,351,461,357
155221,346,462,353
155222,338,462,342
155223,333,460,334
155224,331,461,336
155225,335,460,343
155226,341,458,349
155227,351,458,362
155228,355,456,369
155229,362,458,376
155230,370,458,381
155231,373,457,386
155232,381,459,397
155233,388,462,404
155234,390,460,403
155235,386,462,397
155236,378,463,387
155237,369,463,377
155238,362,462,370
155239,357,462,364
155240,351,460,358
155241,346,462,354
155242,339,462,342
155243,332,462,336
155244,331,461,336
155245,336,460,344
155246,343,457,352
155247,352,458,362
155248,359,459,372
155249,364,458,375
155250,370,459,382
155251,372,457,387
155252,382,457,398
155253,388,458,405
155254,390,461,404
155255,385,457,396
155256,377,461,389
155257,368,460,378
155258,361,461,370
155259,357,461,365
155260,351,462,357
155261,347,460,353
155262,339,461,341
155263,333,458,337
155264,331,459,337
155265,336,459,344
155266,344,459,351
155267,351,458,363
155268,357,459,369
155269,361,459,376
155270,369,458,382
155271,372,459,386
155272,381,458,398
155273,388,459,404
155274,389,461,405
155275,384,462,397
155276,378,460,389
155277,368,461,377
155278,361,461,368
155279,357,462,362
155280,349,461,357
155281,347,460,352
155282,338,459,341
155283,334,460,336
155284,331,458,336
155285,337,458,342
155286,343,461,349
155287,351,455,363
155288,359,457,371
155289,364,459,375
155290,370,460,381
155291,372,460,387
155292,382,459,398
155293,388,461,403
155294,390,459,405
155295,384,461,398
155296,378,460,390
155297,369,463,377
155298,363,462,368
155299,357,462,364
155300,351,465,358
155301,348,461,353
155302,340,461,344
155303,333,461,337
155304,331,459,335
155305,337,458,342
155306,344,459,351
155307,353,459,363
155308,358,459,371
155309,364,457,376
155310,369,459,384
155311,371,458,385
155312,381,459,397
155313,387,458,403
155314,388,459,405
155315,383,461,397
155316,378,460,390
155317,369,460,378
155318,362,463,368
155319,357,463,364
155320,352,461,358
155321,348,460,355
155322,339,462,342
155323,333,461,335
155324,332,461,335
155325,335,460,341
155326,342,455,350
155327,351,454,361
155328,357,459,368
155329,362,457,373
155330,367,457,379
155331,369,456,385
155332,380,458,395
155333,385,456,403
155334,389,459,405
155335,384,460,397
155336,377,458,388
155337,368,460,376
155338,361,461,370
155339,357,461,364
155340,350,460,358
155341,346,461,352
155342,338,461,342
155343,333,462,336
155344,331,458,335
155345,335,460,344
155346,343,459,351
155347,352,457,363
155348,358,458,371
155349,363,457,375
155350,369,456,383
155351,371,458,385
155352,381,458,397
155353,387,457,402
155354,388,459,405
155355,384,459,395
155356,376,461,388
155357,368,459,375
155358,362,460,367
155359,356,460,362
155360,350,461,355
155361,346,457,352
155362,338,459,342
155363,332,459,336
155364,330,459,335
155365,335,459,342
155366,341,458,349
155367,349,458,361
155368,356,459,369
155369,362,458,374
155370,368,458,381
155371,370,458,384
155372,380,458,395
155373,386,460,401
155374,388,458,402
155375,384,457,396
155376,377,459,388
155377,368,460,378
155378,361,461,368
155379,357,462,362
155380,352,460,357
155381,346,460,355
155382,338,458,343
155383,332,460,336
155384,332,459,335
155385,335,460,342
155386,343,456,350
155387,352,457,361
155388,357,461,370
155389,364,458,376
155390,370,458,384
155391,374,460,388
155392,382,459,399
155393,387,460,404
155394,390,459,406
155395,384,460,398
155396,380,459,389
155397,369,462,377
155398,363,459,368
155399,356,460,363
155400,350,461,356
155401,347,459,354
155402,340,461,343
155403,333,457,336
155404,331,457,335
155405,335,459,342
155406,342,457,350
155407,350,459,362
155408,356,457,368
155409,363,459,375
155410,367,458,382
155411,372,457,385
155412,379,459,394
155413,385,459,402
155414,387,460,404
155415,385,459,397
155416,377,461,389
155417,368,459,376
155418,361,459,369
155419,356,461,364
155420,351,461,356
155421,347,461,353
155422,340,461,342
155423,334,459,337
155424,330,459,336
155425,335,456,344
155426,342,456,350
155427,350,456,363
155428,357,457,368
155429,363,455,375
155430,368,457,381
155431,371,456,385
155432,379,458,393
155433,385,458,401
155434,388,458,403
155435,382,459,395
155436,377,461,387
155437,367,459,376
155438,362,459,369
155439,356,459,363
155440,350,459,356
155441,347,460,353
155442,338,458,342
155443,333,457,335
155444,329,458,334
155445,334,456,341
155446,340,457,350
155447,350,456,360
155448,356,458,367
155449,362,455,373
155450,367,454,380
155451,371,456,385
155452,381,458,395
155453,385,458,401
155454,389,458,402
155455,383,458,396
155456,376,460,387
155457,369,458,376
155458,362,458,369
155459,357,460,364
155460,351,459,356
155461,346,460,353
155462,338,457,344
155463,332,459,336
155464,330,457,334
155465,334,456,342
155466,340,456,350
155467,349,458,360
155468,357,458,368
155469,362,457,372
155470,367,456,380
155471,370,456,384
155472,377,456,395
155473,386,459,400
155474,387,458,404
155475,384,458,395
155476,377,459,388
155477,367,460,376
155478,361,460,368
155479,355,460,364
155480,350,457,358
155481,345,458,353
155482,339,461,343
155483,332,461,336
155484,329,459,334
155485,334,459,341
155486,340,456,349
155487,350,457,362
155488,356,458,369
155489,362,458,374
155490,369,455,381
155491,372,453,384
155492,380,459,394
155493,385,458,401
155494,388,459,403
155495,384,460,397
155496,379,460,389
155497,371,462,378
155498,361,460,370
155499,356,460,363
155500,351,460,356
155501,347,459,353
155502,339,459,343
155503,334,458,335
155504,329,458,334
155505,334,457,340
155506,339,458,350
155507,350,456,360
155508,356,456,368
155509,361,454,373
155510,367,456,381
155511,370,457,384
155512,380,459,395
155513,385,457,401
155514,390,461,404
155515,385,455,398
155516,379,460,389
155517,370,460,377
155518,363,462,370
155519,357,461,364
155520,350,457,355
155521,346,458,352
155522,337,461,343
155523,333,459,337
155524,330,459,334
155525,334,458,341
155526,340,458,350
155527,349,457,361
155528,355,458,369
155529,361,458,375
155530,368,457,381
155531,370,459,386
155532,380,457,396
155533,383,455,401
155534,389,458,404
155535,383,459,395
155536,377,458,387
155537,369,460,375
155538,360,459,368
155539,357,458,362
155540,350,459,356
155541,347,458,352
155542,337,459,343
155543,333,458,336
155544,330,455,335
155545,334,456,340
155546,340,455,348
155547,348,457,358
155548,354,454,365
155549,360,456,373
155550,366,457,378
155551,370,456,384
155552,379,457,393
155553,386,457,400
155554,388,457,403
155555,384,458,397
155556,378,457,387
155557,368,458,376
155558,361,458,369
155559,355,458,363
155560,351,460,356
155561,346,460,354
155562,339,456,342
155563,333,458,336
155564,330,459,331
155565,334,457,339
155566,340,456,348
155567,350,458,360
155568,356,456,366
155569,361,456,372
155570,366,457,377
155571,369,457,384
155572,378,457,394
155573,385,456,402
155574,387,459,403
155575,385,459,398
155576,378,458,388
155577,368,460,377
155578,362,460,372
155579,355,461,364
155580,351,462,356
155581,348,460,354
155582,338,460,344
155583,334,459,337
155584,330,459,335
155585,335,457,340
155586,340,457,347
155587,350,457,359
155588,357,459,368
155589,363,450,373
155590,368,458,381
155591,371,457,383
155592,379,458,394
155593,383,458,400
155594,388,461,402
155595,384,459,396
155596,377,461,389
155597,369,461,377
155598,362,460,370
155599,357,460,363
155600,352,458,357
155601,348,462,355
155602,341,459,343
155603,335,455,335
155604,332,460,336
155605,336,460,341
155606,341,458,349
155607,350,457,361
155608,357,458,367
155609,363,459,375
155610,367,456,379
155611,371,458,384
155612,379,457,394
155613,385,460,401
155614,390,461,406
155615,384,455,398
155616,379,463,391
155617,370,461,378
155618,361,463,372
155619,359,463,364
155620,352,460,358
155621,348,461,353
155622,342,461,344
155623,334,461,338
155624,330,460,334
155625,335,460,342
155626,342,460,349
155627,350,457,361
155628,356,459,370
155629,361,458,375
155630,367,460,382
155631,371,459,387
155632,380,459,395
155633,388,459,404
155634,389,460,403
155635,386,461,400
155636,378,462,392
155637,371,465,379
155638,362,464,372
155639,360,462,367
155640,354,461,360
155641,349,463,356
155642,342,462,345
155643,336,459,339
155644,333,461,337
155645,337,462,342
155646,341,461,349
155647,350,460,360
155648,356,459,369
155649,362,458,374
155650,369,457,381
155651,372,460,384
155652,381,459,396
155653,385,461,402
155654,388,462,405
155655,385,461,398
155656,380,459,391
155657,372,461,380
155658,365,462,373
155659,359,461,366
155660,353,463,359
155661,348,461,354
155662,340,464,345
155663,335,460,340
155664,332,461,337
155665,335,461,344
155666,343,460,352
155667,352,461,362
155668,358,461,369
155669,365,457,376
155670,370,466,384
155671,374,462,388
155672,382,461,398
155673,388,460,402
155674,391,462,406
155675,387,462,399
155676,382,461,392
155677,371,463,381
155678,364,462,372
155679,360,464,365
155680,354,462,359
155681,350,459,356
155682,341,462,345
155683,335,463,338
155684,332,458,336
155685,336,458,342
155686,342,460,350
155687,350,458,361
155688,357,459,368
155689,361,459,375
155690,368,458,382
155691,372,457,386
155692,381,460,397
155693,387,461,402
155694,391,461,406
155695,387,459,399
155696,382,460,392
155697,372,460,380
155698,366,463,373
155699,357,466,367
155700,352,466,359
155701,351,464,355
155702,342,463,344
155703,337,462,339
155704,332,461,337
155705,336,462,343
155706,342,460,350
155707,350,462,362
155708,358,460,368
155709,364,459,376
155710,371,462,384
155711,373,463,387
155712,380,462,397
155713,388,463,404
155714,393,464,407
155715,388,463,401
155716,382,463,393
155717,374,462,382
155718,366,465,374
155719,360,463,366
155720,355,465,362
155721,350,464,357
155722,344,464,347
155723,336,463,341
155724,334,463,336
155725,336,463,342
155726,341,461,352
155727,350,462,362
155728,357,461,370
155729,364,461,376
155730,369,458,383
155731,372,462,387
155732,381,460,397
155733,387,463,403
155734,392,462,405
155735,390,464,400
155736,381,462,393
155737,373,465,382
155738,365,464,374
155739,359,465,367
155740,354,466,360
155741,350,464,356
155742,342,464,347
155743,337,462,340
155744,334,463,338
155745,336,467,343
155746,342,462,351
155747,352,464,362
155748,359,462,369
155749,365,462,376
155750,370,461,383
155751,374,461,388
155752,382,462,398
155753,390,461,404
155754,392,464,408
155755,390,463,401
155756,383,463,393
155757,375,467,384
155758,369,467,375
155759,362,469,369
155760,357,468,362
155761,353,466,358
155762,345,467,349
155763,339,464,343
155764,334,462,339
155765,338,465,343
155766,344,463,351
155767,352,465,362
155768,360,464,371
155769,365,463,379
155770,372,461,384
155771,375,460,387
155772,383,466,397
155773,389,466,404
155774,393,463,409
155775,390,463,403
155776,382,465,393
155777,373,466,382
155778,366,466,375
155779,361,461,367
155780,353,461,360
155781,350,463,356
155782,344,462,347
155783,336,462,340
155784,334,462,335
155785,336,461,342
155786,341,461,349
155787,350,460,360
155788,357,460,367
155789,363,458,375
155790,368,459,380
155791,371,459,384
155792,379,459,395
155793,386,459,401
155794,388,459,403
155795,385,459,400
155796,378,459,390
155797,370,460,379
155798,363,460,373
155799,357,461,364
155800,353,460,358
155801,348,460,356
155802,342,461,347
155803,335,460,338
155804,331,461,335
155805,333,461,342
155806,340,459,348
155807,350,459,360
155808,356,458,367
155809,363,459,375
155810,369,455,380
155811,370,458,385
155812,378,460,395
155813,385,457,400
155814,389,460,405
155815,387,460,400
155816,380,458,390
155817,373,462,380
155818,364,461,372
155819,358,463,365
155820,353,462,360
155821,349,462,356
155822,342,461,345
155823,335,461,338
155824,331,461,334
155825,333,458,340
155826,338,458,346
155827,347,457,356
155828,354,456,365
155829,360,456,373
155830,366,457,379
155831,371,457,383
155832,377,459,392
155833,384,457,399
155834,388,457,402
155835,385,458,399
155836,379,459,390
155837,369,461,379
155838,362,459,371
155839,357,460,363
155840,352,458,356
155841,348,457,351
155842,341,456,344
155843,334,456,338
155844,330,460,333
155845,333,457,338
155846,339,458,348
155847,347,459,357
155848,354,457,365
155849,361,455,373
155850,365,459,379
155851,370,455,383
155852,378,455,392
155853,384,457,399
155854,388,454,402
155855,385,456,397
155856,379,460,390
155857,370,461,380
155858,364,461,372
155859,359,462,364
155860,352,461,359
155861,349,461,356
155862,342,460,346
155863,337,460,340
155864,332,460,335
155865,334,458,340
155866,340,458,348
155867,347,458,359
155868,356,458,366
155869,362,457,374
155870,366,458,379
155871,370,457,384
155872,376,458,393
155873,384,457,401
155874,389,459,403
155875,385,456,398
155876,377,460,390
155877,370,460,379
155878,363,459,371
155879,357,461,364
155880,351,459,357
155881,347,459,353
155882,339,458,343
155883,332,459,337
155884,329,457,334
155885,331,454,337
155886,338,453,345
155887,346,453,355
155888,352,453,362
155889,357,452,370
155890,363,457,377
155891,370,455,380
155892,376,455,389
155893,382,455,398
155894,384,457,402
155895,385,458,398
155896,379,458,390
155897,370,459,380
155898,364,458,372
155899,356,461,364
155900,352,459,358
155901,349,458,354
155902,342,460,345
155903,336,458,336
155904,329,457,333
155905,331,458,337
155906,339,458,346
155907,346,454,358
155908,353,455,364
155909,359,455,372
155910,365,455,378
155911,368,456,381
155912,375,456,391
155913,383,457,399
155914,385,459,402
155915,384,457,399
155916,378,460,390
155917,369,458,380
155918,362,458,371
155919,356,458,364
155920,351,456,357
155921,347,459,354
155922,340,457,343
155923,335,456,337
155924,330,456,333
155925,331,456,338
155926,336,455,344
155927,346,455,355
155928,352,453,364
155929,357,452,370
155930,364,453,378
155931,369,456,380
155932,376,453,392
155933,381,455,398
155934,387,454,401
155935,385,456,396
155936,381,457,390
155937,372,459,377
155938,364,457,370
155939,357,455,363
155940,351,459,359
155941,346,459,352
155942,339,458,344
155943,332,458,337
155944,329,456,332
155945,329,454,337
155946,338,456,345
155947,345,454,356
155948,353,453,364
155949,358,457,369
155950,364,454,376
155951,368,455,380
155952,375,453,391
155953,381,455,396
155954,386,453,399
155955,384,457,397
155956,377,455,388
155957,369,456,378
155958,361,455,371
155959,355,458,362
155960,349,456,356
155961,346,458,353
155962,339,456,344
155963,334,457,338
155964,328,456,331
155965,332,456,337
155966,338,455,344
155967,345,453,355
155968,355,453,363
155969,360,453,369
155970,364,454,376
155971,368,456,381
155972,376,455,389
155973,380,455,399
155974,387,457,402
155975,385,456,399
155976,379,458,391
155977,371,460,380
155978,363,461,370
155979,357,459,365
155980,351,459,359
155981,347,459,355
155982,340,460,346
155983,335,459,338
155984,331,457,333
155985,332,456,337
155986,338,458,345
155987,345,457,357
155988,354,457,366
155989,358,458,372
155990,365,456,378
155991,369,458,383
155992,376,457,391
155993,382,457,399
155994,388,457,403
155995,385,458,399
155996,379,459,390
155997,372,458,380
155998,364,460,371
155999,357,459,364
156000,352,459,361
156001,348,459,356
156002,341,460,346
156003,334,459,339
156004,331,457,335
156005,333,456,339
156006,340,458,347
156007,347,455,358
156008,355,455,366
156009,360,458,372
156010,364,457,377
156011,369,457,383
156012,376,457,391
156013,384,456,398
156014,388,459,403
156015,386,458,399
156016,380,461,390
156017,371,460,382
156018,364,460,373
156019,358,460,365
156020,352,460,360
156021,348,460,355
156022,342,457,347
156023,335,459,339
156024,329,459,335
156025,333,458,338
156026,340,457,347
156027,347,456,357
156028,353,459,365
156029,360,458,373
156030,367,459,379
156031,368,458,383
156032,377,458,392
156033,384,457,400
156034,388,459,404
156035,386,460,400
156036,380,460,392
156037,371,459,380
156038,364,459,372
156039,356,459,365
156040,353,460,359
156041,349,459,354
156042,343,459,347
156043,333,458,340
156044,331,458,334
156045,333,456,339
156046,340,457,348
156047,346,456,355
156048,354,457,365
156049,360,459,372
156050,366,456,378
156051,370,455,384
156052,378,460,390
156053,384,461,399
156054,388,457,404
156055,387,458,399
156056,380,462,393
156057,373,460,382
156058,364,460,374
156059,360,463,365
156060,354,463,361
156061,350,462,356
156062,343,464,348
156063,336,462,340
156064,331,461,335
156065,333,459,338
156066,340,461,347
156067,349,460,359
156068,356,460,367
156069,362,457,374
156070,368,458,381
156071,374,460,383
156072,378,462,394
156073,385,460,400
156074,389,462,407
156075,388,459,402
156076,382,461,393
156077,374,461,383
156078,366,462,375
156079,360,462,365
156080,356,460,361
156081,350,464,357
156082,346,461,348
156083,337,464,339
156084,332,460,334
156085,334,460,338
156086,339,460,347
156087,347,460,357
156088,353,462,366
156089,361,460,372
156090,365,460,379
156091,371,462,384
156092,379,459,393
156093,384,461,401
156094,390,462,405
156095,388,459,402
156096,382,460,392
156097,374,463,383
156098,365,462,373
156099,358,463,366
156100,354,462,362
156101,350,462,355
156102,344,461,347
156103,336,459,340
156104,331,461,336
156105,333,459,339
156106,340,459,346
156107,347,459,356
156108,355,458,365
156109,361,457,374
156110,366,457,378
156111,370,458,385
156112,376,456,390
156113,385,457,399
156114,389,456,404
156115,386,457,399
156116,379,461,392
156117,371,461,380
156118,365,462,374
156119,358,460,365
156120,354,458,359
156121,349,459,356
156122,343,460,348
156123,335,460,340
156124,332,458,335
156125,332,459,336
156126,338,457,345
156127,343,457,354
156128,352,457,363
156129,360,457,371
156130,364,457,378
156131,370,456,382
156132,377,456,391
156133,383,455,397
156134,388,457,402
156135,385,457,400
156136,380,459,391
156137,373,458,381
156138,366,462,372
156139,358,462,365
156140,354,461,358
156141,349,460,355
156142,343,459,346
156143,336,460,339
156144,332,458,334
156145,332,457,338
156146,338,456,346
156147,346,459,356
156148,353,458,366
156149,361,458,373
156150,365,459,379
156151,370,456,383
156152,377,459,393
156153,386,459,400
156154,390,460,406
156155,389,462,403
156156,382,462,393
156157,374,463,384
156158,365,462,374
156159,361,463,367
156160,355,462,361
156161,350,464,355
156162,345,462,350
156163,338,461,339
156164,332,460,334
156165,332,461,337
156166,339,461,346
156167,347,458,357
156168,355,459,366
156169,362,459,374
156170,368,458,378
156171,371,456,386
156172,377,460,391
156173,384,461,399
156174,389,459,406
156175,389,460,404
156176,382,459,393
156177,374,462,382
156178,365,461,372
156179,359,463,366
156180,354,462,361
156181,350,460,356
156182,344,463,350
156183,337,461,341
156184,332,463,336
156185,334,461,339
156186,342,461,347
156187,348,461,358
156188,355,461,367
156189,363,460,375
156190,367,460,379
156191,371,460,384
156192,376,462,392
156193,385,461,401
156194,391,460,406
156195,389,463,404
156196,382,462,393
156197,375,461,384
156198,367,462,375
156199,359,463,367
156200,356,462,362
156201,351,464,357
156202,343,461,348
156203,337,459,342
156204,333,458,335
156205,332,461,339
156206,339,460,347
156207,346,460,358
156208,355,459,366
156209,362,460,374
156210,365,457,378
156211,371,459,384
156212,375,459,391
156213,384,460,400
156214,389,461,406
156215,390,460,403
156216,381,461,393
156217,372,462,384
156218,366,461,374
156219,359,461,365
156220,355,462,361
156221,349,462,356
156222,345,461,348
156223,335,461,340
156224,333,461,334
156225,333,460,340
156226,340,459,347
156227,348,458,357
156228,356,459,366
156229,360,459,374
156230,367,459,379
156231,371,460,382
156232,377,459,392
156233,384,460,399
156234,387,461,405
156235,388,460,402
156236,383,461,393
156237,374,462,383
156238,365,461,373
156239,358,461,367
156240,354,461,361
156241,350,460,355
156242,345,460,347
156243,338,461,340
156244,331,458,336
156245,332,459,337
156246,337,459,345
156247,344,457,353
156248,353,458,364
156249,360,457,372
156250,365,456,378
156251,368,457,382
156252,374,458,389
156253,381,459,398
156254,387,458,402
156255,386,458,401
156256,382,460,393
156257,373,459,382
156258,363,459,372
156259,358,457,365
156260,353,457,361
156261,347,457,354
156262,343,461,348
156263,335,460,340
156264,329,457,333
156265,332,455,336
156266,337,457,345
156267,344,454,355
156268,352,456,362
156269,360,457,371
156270,365,454,376
156271,369,455,382
156272,373,456,389
156273,383,456,397
156274,386,454,402
156275,385,457,399
156276,379,458,390
156277,372,457,381
156278,365,457,372
156279,357,457,363
156280,350,455,357
156281,345,456,352
156282,341,456,345
156283,333,456,337
156284,327,455,330
156285,329,453,335
156286,335,451,341
156287,342,451,351
156288,349,453,360
156289,356,451,369
156290,361,452,373
156291,366,452,380
156292,371,452,386
156293,379,452,394
156294,385,452,401
156295,384,453,397
156296,377,452,388
156297,370,454,378
156298,361,453,369
156299,354,452,360
156300,349,452,355
156301,345,452,350
156302,341,451,342
156303,330,453,334
156304,325,452,328
156305,326,450,331
156306,334,449,340
156307,340,450,349
156308,348,448,358
156309,354,449,365
156310,359,449,371
156311,364,447,376
156312,368,449,381
156313,375,449,391
156314,382,449,398
156315,382,451,395
156316,373,452,384
156317,366,452,377
156318,358,451,366
156319,352,449,360
156320,348,449,355
156321,341,450,348
156322,338,451,341
156323,329,451,332
156324,325,448,328
156325,326,447,329
156326,331,449,340
156327,339,450,348
156328,346,447,356
156329,354,449,365
156330,358,448,371
156331,363,449,377
156332,367,448,382
156333,376,446,391
156334,381,447,397
156335,380,449,395
156336,374,449,385
156337,367,450,375
156338,358,450,365
156339,351,450,355
156340,347,448,351
156341,342,450,347
156342,337,448,343
156343,329,449,332
156344,323,449,327
156345,326,449,331
156346,330,448,337
156347,339,448,348
156348,346,448,357
156349,353,448,365
156350,358,446,368
156351,361,448,375
156352,366,450,382
156353,377,448,392
156354,381,449,397
156355,381,449,394
156356,374,450,387
156357,366,451,376
156358,358,452,366
156359,353,451,359
156360,348,452,354
156361,343,453,349
156362,339,451,343
156363,330,449,333
156364,324,451,328
156365,325,449,330
156366,332,451,339
156367,339,451,349
156368,348,451,358
156369,354,451,365
156370,359,450,372
156371,364,451,378
156372,370,450,384
156373,378,452,394
156374,384,452,400
156375,384,454,398
156376,378,454,390
156377,370,454,379
156378,363,455,369
156379,355,456,362
156380,350,457,358
156381,345,455,351
156382,341,455,346
156383,332,454,337
156384,327,455,331
156385,329,456,333
156386,334,455,342
156387,342,456,353
156388,350,456,363
156389,358,456,369
156390,362,455,374
156391,367,456,381
156392,373,455,388
156393,382,455,396
156394,387,454,402
156395,386,458,401
156396,380,458,390
156397,371,459,382
156398,363,457,373
156399,357,457,364
156400,353,458,358
156401,348,458,354
156402,344,460,348
156403,335,457,338
156404,330,458,334
156405,331,455,336
156406,339,459,345
156407,343,457,353
156408,353,458,363
156409,359,457,372
156410,363,457,375
156411,370,456,383
156412,374,459,390
156413,382,458,398
156414,388,460,403
156415,388,462,402
156416,383,461,392
156417,375,462,385
156418,366,461,375
156419,361,463,368
156420,356,463,364
156421,351,463,357
156422,348,464,352
156423,339,462,343
156424,333,464,337
156425,333,462,339
156426,340,461,347
156427,348,462,356
156428,356,462,367
156429,362,462,375
156430,367,464,380
156431,373,465,388
156432,379,466,393
156433,387,464,402
156434,393,464,408
156435,393,469,406
156436,387,467,399
156437,380,469,389
156438,369,469,378
156439,363,467,371
156440,358,466,366
156441,353,466,361
156442,351,466,356
156443,340,465,346
156444,336,468,341
156445,336,468,342
156446,342,467,351
156447,349,466,359
156448,357,467,367
156449,366,467,377
156450,368,466,383
156451,376,467,389
156452,381,467,396
156453,390,469,405
156454,395,470,411
156455,395,470,409
156456,389,470,401
156457,383,471,392
156458,374,470,383
156459,368,469,373
156460,363,469,369
156461,358,470,363
156462,353,472,360
156463,345,472,349
156464,340,472,344
156465,340,472,345
156466,345,471,353
156467,351,470,362
156468,362,471,372
156469,367,470,381
156470,372,471,386
156471,377,469,393
156472,382,471,397
156473,393,472,408
156474,398,471,414
156475,398,474,413
156476,392,475,404
156477,386,475,395
156478,377,473,385
156479,370,476,378
156480,366,475,372
156481,359,477,366
156482,355,477,361
156483,347,474,350
156484,342,474,344
156485,340,473,347
156486,349,473,355
156487,354,471,366
156488,364,473,375
156489,370,474,383
156490,376,474,388
156491,381,476,395
156492,385,475,399
156493,396,476,411
156494,400,476,418
156495,401,478,414
156496,395,479,407
156497,388,479,398
156498,378,480,388
156499,372,479,381
156500,368,481,376
156501,364,481,370
156502,359,480,366
156503,350,478,354
156504,345,478,349
156505,343,474,350
156506,351,478,359
156507,356,480,368
156508,368,475,378
156509,373,475,386
156510,377,477,392
156511,383,478,397
156512,388,478,402
156513,398,479,414
156514,403,480,420
156515,404,479,418
156516,398,480,409
156517,392,481,401
156518,382,484,391
156519,375,484,384
156520,371,484,379
156521,366,485,374
156522,362,484,369
156523,354,482,360
156524,349,483,353
156525,348,484,354
156526,355,484,363
156527,362,485,370
156528,371,484,382
156529,378,483,391
156530,382,482,396
156531,387,484,401
156532,392,484,406
156533,399,485,418
156534,406,484,423
156535,406,484,421
156536,399,486,415
156537,394,488,405
156538,384,487,394
156539,377,487,385
156540,372,487,380
156541,366,488,374
156542,363,487,370
156543,353,482,358
156544,349,482,353
156545,350,485,356
156546,356,484,363
156547,362,484,374
156548,370,483,383
156549,377,483,390
156550,384,485,398
156551,388,487,403
156552,393,485,407
156553,403,485,420
156554,408,487,424
156555,408,487,424
156556,401,486,414
156557,394,488,404
156558,386,488,396
156559,379,489,387
156560,374,488,382
156561,368,489,376
156562,365,487,371
156563,356,488,360
156564,350,488,355
156565,351,484,356
156566,356,484,364
156567,362,484,373
156568,372,484,385
156569,377,485,392
156570,383,485,397
156571,389,485,403
156572,392,486,408
156573,403,487,420
156574,409,484,425
156575,409,486,423
156576,400,488,416
156577,393,488,406
156578,386,489,395
156579,378,488,388
156580,375,490,383
156581,370,489,376
156582,367,488,372
156583,356,486,362
156584,350,486,355
156585,350,483,358
156586,356,484,364
156587,365,484,373
156588,371,483,383
156589,379,486,392
156590,383,486,398
156591,389,486,403
156592,394,485,408
156593,404,487,418
156594,409,487,425
156595,409,486,424
156596,405,490,417
156597,396,490,406
156598,387,490,396
156599,380,493,389
156600,377,490,385
156601,369,488,377
156602,366,490,372
156603,355,489,362
156604,352,488,356
156605,351,488,356
156606,358,487,365
156607,363,486,374
156608,373,486,385
156609,379,486,393
156610,384,485,398
156611,390,486,403
156612,394,486,408
156613,402,489,418
156614,408,488,426
156615,409,490,425
156616,404,489,416
156617,396,490,407
156618,388,492,398
156619,382,492,390
156620,377,492,387
156621,374,494,378
156622,368,492,375
156623,359,487,364
156624,353,490,357
156625,351,488,358
156626,358,486,367
156627,364,486,375
156628,372,487,384
156629,379,486,394
156630,383,486,398
156631,388,486,405
156632,394,486,408
156633,403,486,419
156634,408,485,424
156635,409,486,424
156636,403,486,415
156637,393,487,405
156638,387,485,395
156639,379,485,388
156640,375,483,382
156641,369,486,374
156642,364,484,370
156643,353,485,358
156644,346,483,350
156645,346,482,353
156646,353,481,361
156647,359,480,368
156648,367,479,379
156649,373,478,386
156650,379,475,391
156651,384,479,396
156652,387,477,401
156653,396,479,413
156654,402,477,418
156655,401,479,416
156656,396,480,407
156657,389,475,399
156658,380,477,388
156659,373,475,380
156660,367,478,376
156661,361,478,367
156662,357,476,363
156663,347,476,352
156664,344,475,346
156665,341,473,348
156666,347,473,354
156667,353,472,364
156668,362,472,374
156669,369,471,381
156670,372,472,387
156671,377,472,392
156672,384,472,396
156673,392,473,407
156674,397,473,414
156675,398,474,413
156676,392,474,406
156677,385,474,396
156678,376,475,384
156679,369,474,378
156680,365,475,373
156681,360,474,367
156682,356,476,363
156683,346,472,352
156684,341,474,344
156685,339,476,346
156686,347,473,355
156687,353,474,363
156688,363,471,372
156689,369,472,382
156690,374,473,387
156691,380,469,394
156692,384,472,399
156693,393,476,410
156694,398,476,415
156695,400,477,414
156696,394,477,406
156697,388,479,398
156698,378,478,387
156699,374,483,382
156700,369,479,376
156701,361,480,369
156702,359,481,366
156703,351,480,355
156704,346,480,348
156705,345,480,349
156706,349,478,359
156707,357,478,367
156708,367,478,378
156709,373,479,384
156710,377,479,389
156711,384,480,397
156712,388,479,402
156713,396,476,413
156714,402,481,420
156715,404,481,419
156716,397,479,410
156717,391,482,401
156718,381,480,390
156719,375,481,384
156720,370,481,377
156721,365,481,370
156722,359,478,366
156723,350,477,354
156724,345,477,347
156725,345,476,350
156726,349,475,358
156727,356,477,366
156728,365,475,376
156729,371,476,383
156730,375,474,388
156731,381,473,395
156732,385,474,399
156733,392,472,409
156734,399,472,414
156735,399,473,415
156736,394,471,407
156737,385,474,395
156738,375,473,384
156739,368,476,377
156740,365,472,371
156741,359,471,365
156742,355,470,360
156743,345,470,350
156744,340,469,343
156745,338,467,344
156746,343,469,351
156747,349,468,358
156748,358,465,369
156749,364,466,377
156750,369,466,380
156751,374,465,388
156752,379,464,392
156753,387,464,404
156754,391,465,409
156755,392,464,408
156756,386,464,398
156757,382,464,389
156758,368,466,378
156759,364,464,370
156760,357,463,365
156761,352,464,358
156762,346,462,354
156763,338,463,343
156764,333,461,335
156765,332,462,338
156766,338,460,345
156767,342,457,351
156768,352,459,362
156769,358,455,369
156770,363,456,375
156771,369,455,379
156772,373,453,384
156773,380,457,395
156774,387,457,403
156775,388,459,402
156776,382,457,394
156777,377,457,385
156778,366,457,372
156779,360,457,364
156780,354,455,359
156781,347,457,353
156782,343,457,349
156783,334,457,337
156784,328,455,333
156785,326,456,332
156786,332,452,341
156787,338,452,347
156788,349,452,359
156789,354,453,365
156790,357,451,371
156791,364,451,377
156792,369,452,381
156793,378,452,393
156794,384,453,398
156795,383,453,399
156796,379,454,389
156797,372,456,380
156798,363,454,369
156799,356,452,363
156800,351,453,359
156801,347,454,351
156802,343,452,348
156803,334,456,337
156804,327,453,332
156805,327,454,329
156806,333,452,338
156807,338,453,347
156808,349,453,359
156809,355,452,365
156810,359,451,373
156811,366,451,378
156812,369,452,382
156813,378,452,393
156814,384,453,397
156815,383,455,398
156816,381,456,391
156817,373,455,382
156818,363,456,371
156819,356,454,362
156820,352,456,358
156821,347,452,352
156822,342,455,347
156823,334,452,336
156824,327,454,332
156825,325,454,331
156826,332,453,339
156827,338,447,347
156828,348,452,359
156829,353,452,366
156830,359,452,372
156831,365,453,377
156832,369,452,382
156833,378,455,393
156834,384,454,399
156835,385,454,400
156836,380,455,393
156837,375,453,385
156838,366,456,373
156839,358,457,366
156840,352,459,360
156841,347,455,352
156842,344,458,348
156843,335,457,338
156844,328,456,331
156845,329,456,333
156846,334,455,340
156847,340,455,348
156848,349,454,359
156849,356,456,367
156850,362,454,374
156851,367,452,379
156852,371,455,384
156853,380,457,395
156854,386,456,402
156855,387,456,402
156856,382,457,393
156857,376,458,386
156858,366,456,373
156859,360,459,366
156860,355,460,362
156861,350,460,355
156862,346,460,350
156863,338,458,339
156864,329,458,333
156865,329,458,334
156866,335,457,341
156867,341,456,349
156868,349,457,361
156869,357,456,369
156870,362,457,373
156871,366,457,380
156872,371,457,386
156873,381,457,396
156874,384,459,402
156875,388,459,404
156876,383,456,395
156877,376,460,386
156878,367,458,374
156879,361,460,368
156880,356,460,361
156881,349,460,355
156882,346,460,352
156883,337,457,341
156884,331,460,335
156885,329,460,334
156886,335,459,342
156887,341,458,350
156888,350,457,362
156889,356,459,368
156890,362,457,375
156891,367,457,382
156892,372,458,385
156893,382,458,396
156894,386,457,403
156895,390,460,403
156896,382,460,395
156897,377,461,387
156898,368,462,375
156899,359,463,368
156900,357,460,362
156901,350,459,357
156902,346,458,351
156903,337,460,342
156904,332,459,335
156905,332,459,334
156906,337,458,341
156907,343,459,352
156908,351,457,362
156909,359,458,370
156910,362,455,373
156911,368,458,382
156912,372,456,387
156913,381,458,397
156914,388,460,403
156915,389,458,403
156916,382,459,396
156917,377,461,387
156918,368,461,375
156919,360,461,369
156920,357,462,364
156921,351,460,355
156922,347,462,352
156923,340,460,342
156924,332,460,336
156925,332,456,334
156926,336,455,344
156927,343,456,350
156928,352,455,362
156929,358,455,369
156930,363,457,375
156931,368,459,380
156932,373,456,387
156933,382,458,396
156934,386,457,403
156935,388,459,401
156936,383,458,395
156937,375,459,387
156938,367,459,374
156939,361,458,367
156940,354,458,362
156941,350,459,353
156942,345,459,351
156943,335,456,341
156944,332,459,333
156945,329,458,334
156946,335,459,342
156947,342,457,350
156948,350,456,362
156949,357,457,369
156950,362,453,373
156951,367,456,380
156952,371,457,384
156953,379,456,395
156954,385,458,401
156955,389,458,403
156956,384,459,395
156957,378,459,387
156958,368,460,374
156959,361,458,368
156960,355,457,361
156961,349,459,355
156962,344,458,350
156963,335,456,338
156964,331,455,333
156965,327,458,332
156966,334,457,341
156967,341,456,348
156968,349,455,361
156969,355,457,366
156970,361,456,374
156971,368,458,381
156972,372,457,384
156973,379,458,396
156974,386,458,403
156975,388,460,403
156976,385,460,395
156977,377,461,388
156978,368,460,377
156979,363,462,370
156980,358,463,365
156981,354,466,361
156982,352,468,359
156983,344,468,349
156984,340,471,344
156985,340,474,343
156986,344,475,353
156987,353,476,363
156988,364,478,376
156989,372,480,384
156990,378,480,391
156991,388,484,404
156992,393,487,408
156993,403,491,421
156994,411,493,428
156995,414,495,431
156996,408,496,423
156997,403,499,416
156998,395,499,405
156999,389,502,400
157000,385,502,395
157001,379,503,387
157002,376,505,384
157003,370,506,373
157004,363,504,369
157005,363,504,367
157006,367,504,376
157007,373,502,384
157008,383,502,393
157009,390,500,404
157010,395,501,408
157011,401,503,417
157012,405,503,419
157013,415,503,430
157014,419,502,436
157015,422,505,437
157016,417,504,430
157017,409,505,421
157018,398,506,408
157019,393,503,403
157020,387,505,394
157021,381,503,387
157022,377,503,384
157023,369,498,374
157024,362,499,367
157025,359,498,365
157026,363,498,370
157027,369,494,380
157028,378,496,391
157029,384,495,397
157030,388,494,403
157031,392,492,410
157032,397,492,412
157033,406,491,422
157034,411,491,429
157035,413,493,428
157036,408,490,420
157037,399,490,412
157038,391,492,399
157039,383,492,392
157040,378,490,386
157041,372,489,377
157042,367,488,373
157043,357,487,362
157044,351,485,358
157045,348,483,356
157046,353,482,361
157047,358,482,367
157048,369,480,378
157049,375,482,386
157050,378,479,391
157051,383,480,398
157052,388,474,401
157053,396,479,411
157054,402,478,418
157055,404,480,418
157056,397,476,411
157057,391,478,402
157058,381,477,389
157059,374,476,382
157060,368,475,375
157061,363,472,370
157062,359,474,365
157063,351,475,354
157064,343,475,346
157065,341,474,346
157066,344,472,353
157067,351,468,361
157068,360,470,372
157069,365,469,378
157070,371,469,384
157071,376,468,390
157072,380,465,394
157073,388,464,403
157074,394,467,410
157075,395,466,410
157076,390,467,402
157077,384,467,394
157078,373,467,381
157079,366,466,374
157080,362,466,367
157081,354,465,361
157082,350,462,356
157083,341,465,346
157084,336,463,339
157085,333,462,336
157086,337,461,343
157087,343,460,352
157088,350,459,363
157089,359,461,371
157090,364,460,377
157091,369,458,382
157092,373,457,387
157093,382,457,398
157094,386,458,402
157095,389,454,404
157096,383,458,395
157097,377,456,387
157098,365,457,376
157099,360,457,369
157100,355,458,362
157101,349,455,354
157102,344,454,350
157103,335,456,340
157104,329,455,333
157105,327,453,329
157106,331,452,339
157107,337,452,346
157108,346,449,357
157109,352,451,365
157110,357,450,369
157111,364,449,376
157112,367,451,380
157113,375,450,389
157114,381,448,395
157115,383,450,397
157116,378,449,391
157117,371,450,383
157118,363,448,370
157119,356,449,363
157120,349,452,356
157121,345,450,349
157122,339,451,346
157123,332,448,334
157124,324,447,329
157125,323,445,328
157126,327,445,333
157127,334,445,342
157128,343,445,353
157129,350,445,358
157130,354,444,364
157131,359,443,371
157132,361,445,375
157133,371,443,385
157134,376,443,392
157135,379,445,393
157136,374,445,386
157137,366,446,378
157138,357,445,366
157139,351,443,359
157140,346,445,351
157141,339,446,347
157142,337,444,341
157143,328,443,332
157144,322,444,326
157145,320,441,323
157146,324,443,330
157147,330,442,338
157148,339,442,350
157149,346,440,357
157150,350,441,363
157151,355,439,367
157152,359,442,372
157153,368,442,383
157154,374,443,389
157155,376,444,391
157156,371,442,383
157157,364,444,376
157158,357,444,362
157159,351,444,355
157160,346,445,350
157161,339,445,344
157162,335,443,339
157163,326,442,329
157164,322,444,324
157165,318,441,324
157166,322,442,330
157167,329,439,335
157168,338,438,349
157169,345,437,355
157170,350,436,361
157171,355,438,366
157172,359,440,371
157173,367,439,382
157174,374,442,389
157175,376,439,390
157176,371,438,383
157177,366,440,374
157178,357,444,362
157179,348,441,355
157180,342,441,350
157181,336,441,342
157182,333,442,339
157183,324,441,329
157184,320,440,322
157185,316,438,320
157186,323,439,327
157187,328,439,335
157188,337,439,347
157189,344,441,355
157190,349,440,361
157191,353,438,368
157192,357,437,371
157193,367,437,381
157194,372,439,386
157195,374,440,390
157196,371,440,382
157197,364,442,374
157198,354,441,363
157199,348,440,356
157200,342,442,350
157201,337,442,342
157202,334,440,339
157203,328,441,330
157204,321,438,323
157205,317,440,321
157206,322,440,328
157207,328,438,337
157208,336,439,346
157209,341,439,354
157210,350,438,360
157211,354,440,366
157212,359,438,370
157213,367,439,382
157214,372,440,388
157215,376,442,390
157216,372,443,383
157217,366,443,376
157218,357,443,365
157219,349,440,357
157220,344,443,351
157221,339,443,343
157222,335,443,341
157223,326,443,329
157224,322,443,325
157225,320,441,323
157226,323,441,329
157227,328,441,336
157228,337,441,349
157229,345,441,355
157230,351,442,362
157231,357,442,370
157232,361,441,374
157233,369,440,383
157234,375,443,390
157235,377,445,393
157236,374,443,386
157237,367,443,377
157238,359,444,366
157239,352,444,359
157240,347,446,352
157241,340,446,344
157242,337,447,342
157243,327,444,332
157244,323,445,327
157245,318,445,324
157246,326,446,331
157247,333,446,340
157248,339,445,351
157249,347,444,359
157250,354,447,365
157251,359,447,372
157252,362,446,376
157253,372,447,386
157254,378,446,393
157255,381,447,396
157256,377,448,388
157257,370,449,381
157258,360,448,367
157259,354,449,359
157260,349,450,356
157261,345,450,349
157262,340,448,345
157263,332,451,337
157264,324,450,329
157265,322,449,328
157266,328,448,333
157267,334,447,342
157268,344,445,352
157269,349,449,360
157270,355,449,367
157271,360,448,373
157272,363,445,379
157273,374,449,387
157274,379,449,394
157275,381,450,396
157276,378,451,390
157277,372,448,382
157278,363,448,370
157279,357,452,362
157280,350,452,356
157281,345,449,350
157282,342,450,346
157283,332,453,337
157284,325,451,331
157285,325,451,328
157286,329,451,335
157287,335,455,343
157288,345,446,354
157289,351,449,363
157290,355,449,368
157291,361,448,375
157292,366,451,380
157293,374,451,389
157294,381,451,395
157295,384,451,400
157296,379,455,391
157297,373,455,383
157298,364,453,372
157299,358,453,364
157300,352,454,358
157301,346,452,352
157302,343,451,347
157303,335,453,338
157304,329,453,331
157305,325,453,329
157306,331,449,336
157307,336,452,345
157308,346,451,355
157309,352,450,362
157310,357,447,370
157311,363,450,376
157312,367,448,379
157313,376,453,390
157314,381,452,398
157315,384,454,399
157316,380,453,392
157317,375,451,385
157318,365,455,373
157319,357,454,366
157320,352,453,359
157321,348,454,352
157322,343,453,348
157323,335,453,338
157324,328,454,331
157325,327,453,329
157326,331,452,336
157327,337,451,345
157328,346,452,356
157329,354,453,363
157330,359,452,369
157331,364,452,376
157332,367,450,380
157333,375,453,391
157334,382,451,397
157335,384,452,399
157336,380,451,394
157337,375,454,386
157338,366,452,373
157339,360,455,366
157340,354,456,360
157341,348,454,353
157342,344,456,349
157343,337,454,339
157344,329,454,332
157345,326,455,329
157346,330,454,336
157347,338,452,343
157348,345,449,355
157349,352,453,364
157350,358,452,370
157351,364,453,377
157352,368,449,382
157353,376,453,390
157354,382,453,397
157355,385,453,399
157356,381,454,393
157357,375,456,386
157358,363,455,373
157359,359,455,367
157360,353,455,359
157361,347,455,354
157362,344,453,350
157363,336,455,339
157364,331,455,333
157365,328,453,330
157366,331,453,337
157367,337,453,345
157368,346,452,357
157369,352,451,364
157370,359,453,371
157371,363,453,376
157372,367,454,381
157373,376,454,389
157374,382,453,396
157375,385,451,400
157376,381,455,392
157377,374,456,385
157378,367,455,373
157379,359,456,366
157380,356,454,360
157381,349,454,354
157382,346,453,349
157383,337,456,340
157384,332,453,333
157385,327,455,330
157386,331,454,337
157387,337,454,345
157388,345,454,356
157389,352,453,365
157390,359,455,371
157391,362,454,378
157392,367,454,381
157393,377,453,391
157394,382,453,397
157395,386,456,402
157396,382,453,394
157397,376,456,386
157398,367,457,374
157399,359,457,368
157400,355,456,360
157401,348,455,355
157402,345,455,351
157403,338,454,342
157404,332,455,335
157405,327,456,331
157406,331,455,337
157407,338,456,345
157408,347,455,357
157409,352,455,365
157410,359,455,371
157411,364,455,378
157412,369,457,383
157413,376,455,393
157414,384,456,400
157415,387,457,403
157416,383,458,395
157417,376,457,388
157418,368,455,376
157419,361,458,369
157420,356,458,361
157421,349,458,355
157422,346,458,352
157423,338,455,342
157424,331,454,335
157425,330,456,333
157426,332,456,338
157427,338,456,347
157428,348,455,358
157429,353,455,365
157430,360,456,371
157431,366,455,379
157432,369,452,382
157433,379,457,394
157434,383,458,400
157435,388,457,404
157436,384,458,396
157437,377,456,387
157438,369,456,376
157439,363,459,370
157440,358,460,363
157441,350,456,357
157442,347,459,353
157443,338,458,342
157444,333,459,337
157445,329,457,333
157446,332,457,340
157447,340,457,346
157448,348,457,358
157449,354,455,365
157450,361,455,372
157451,366,456,378
157452,369,455,383
157453,378,457,393
157454,385,456,399
157455,387,458,403
157456,383,459,396
157457,377,455,388
157458,369,457,376
157459,361,456,368
157460,356,457,361
157461,350,460,356
157462,347,461,353
157463,339,458,343
157464,334,456,337
157465,329,457,334
157466,332,457,340
157467,340,458,347
157468,349,458,359
157469,356,458,366
157470,361,456,373
157471,366,454,380
157472,370,456,384
157473,378,455,393
157474,385,459,401
157475,389,458,404
157476,385,459,397
157477,378,461,389
157478,369,460,378
157479,363,459,370
157480,356,458,363
157481,352,457,358
157482,348,459,353
157483,341,461,344
157484,334,460,338
157485,331,458,335
157486,334,457,341
157487,340,458,348
157488,349,458,359
157489,355,459,367
157490,361,457,374
157491,366,457,380
157492,371,457,383
157493,379,459,393
157494,385,457,401
157495,388,458,404
157496,384,457,397
157497,379,459,389
157498,369,460,378
157499,363,461,371
157500,356,461,363
157501,352,457,357
157502,347,458,354
157503,340,455,346
157504,334,455,337
157505,331,456,334
157506,334,457,341
157507,340,456,348
157508,349,457,359
157509,355,458,366
157510,362,456,374
157511,368,457,380
157512,370,458,385
157513,379,457,392
157514,385,457,399
157515,389,460,404
157516,386,458,399
157517,378,459,388
157518,369,460,379
157519,363,461,370
157520,355,460,363
157521,352,460,358
157522,349,460,353
157523,339,460,344
157524,335,460,338
157525,331,460,334
157526,333,458,340
157527,340,460,349
157528,349,455,358
157529,356,457,367
157530,361,458,374
157531,367,459,381
157532,371,458,384
157533,378,456,394
157534,386,459,400
157535,389,460,405
157536,385,460,398
157537,379,458,392
157538,371,461,379
157539,363,460,371
157540,357,458,364
157541,352,457,358
157542,349,459,353
157543,339,456,344
157544,334,459,336
157545,330,461,335
157546,335,457,340
157547,340,458,348
157548,348,456,359
157549,356,458,367
157550,363,458,373
157551,367,458,381
157552,371,457,385
157553,378,455,395
157554,384,457,400
157555,388,459,403
157556,386,459,398
157557,379,458,389
157558,371,460,378
157559,363,459,371
157560,355,459,365
157561,351,458,358
157562,347,460,353
157563,341,459,345
157564,334,460,338
157565,330,458,336
157566,335,457,341
157567,341,457,348
157568,349,456,362
157569,355,456,367
157570,361,454,373
157571,368,457,381
157572,371,458,384
157573,378,460,395
157574,384,455,400
157575,390,459,404
157576,387,461,399
157577,379,461,391
157578,370,460,379
157579,363,460,371
157580,359,461,364
157581,352,460,357
157582,348,460,354
157583,341,460,344
157584,335,460,337
157585,330,460,334
157586,335,458,339
157587,340,460,349
157588,349,456,358
157589,356,460,367
157590,361,458,373
157591,367,458,380
157592,371,456,384
157593,378,460,394
157594,386,459,401
157595,387,459,403
157596,386,459,398
157597,381,459,391
157598,370,460,379
157599,364,462,370
157600,360,460,365
157601,353,459,358
157602,349,462,355
157603,342,461,343
157604,334,459,339
157605,331,456,336
157606,334,457,340
157607,340,456,348
157608,350,458,359
157609,356,458,366
157610,362,459,374
157611,366,459,381
157612,370,456,385
157613,380,457,395
157614,385,460,402
157615,388,459,404
157616,387,462,401
157617,379,461,391
157618,371,461,379
157619,362,459,371
157620,357,460,365
157621,352,458,357
157622,349,461,355
157623,341,461,346
157624,335,459,339
157625,331,459,335
157626,333,456,340
157627,340,456,348
157628,349,455,359
157629,355,459,366
157630,360,457,374
157631,367,459,381
157632,372,460,386
157633,380,459,394
157634,384,458,402
157635,390,459,405
157636,386,462,400
157637,380,462,391
157638,372,462,379
157639,366,462,372
157640,359,460,365
157641,353,463,359
157642,349,461,355
157643,343,461,346
157644,335,462,339
157645,332,459,335
157646,333,459,340
157647,340,457,347
157648,349,461,360
157649,356,458,366
157650,362,460,374
157651,366,460,381
157652,372,459,385
157653,379,460,394
157654,385,459,401
157655,389,460,405
157656,387,461,399
157657,381,462,391
157658,371,463,381
157659,365,462,373
157660,359,462,365
157661,353,462,360
157662,350,463,356
157663,340,460,346
157664,334,462,338
157665,332,460,335
157666,336,459,340
157667,341,460,349
157668,350,459,361
157669,357,461,367
157670,364,460,374
157671,369,457,381
157672,373,458,384
157673,379,459,393
157674,385,462,401
157675,390,460,405
157676,387,463,401
157677,380,460,393
157678,371,462,380
157679,367,461,373
157680,359,463,366
157681,353,461,360
157682,352,461,355
157683,343,462,347
157684,338,461,339
157685,331,461,336
157686,336,460,341
157687,342,461,349
157688,349,459,361
157689,357,459,367
157690,364,459,376
157691,367,460,381
157692,372,461,385
157693,379,458,393
157694,386,460,401
157695,390,462,406
157696,387,462,401
157697,381,463,392
157698,373,462,382
157699,366,460,374
157700,359,462,367
157701,353,463,360
157702,350,463,356
157703,343,462,346
157704,337,462,340
157705,332,461,335
157706,334,461,339
157707,341,461,350
157708,349,459,359
157709,354,460,367
157710,361,459,374
157711,367,461,381
157712,370,461,386
157713,380,460,393
157714,388,461,402
157715,390,460,406
157716,389,463,401
157717,380,463,392
157718,373,462,382
157719,365,462,375
157720,359,464,366
157721,353,463,361
157722,349,462,356
157723,344,460,347
157724,336,463,339
157725,331,465,336
157726,335,461,341
157727,342,462,350
157728,349,457,359
157729,357,460,368
157730,363,461,376
157731,368,459,380
157732,373,461,386
157733,379,460,395
157734,386,462,401
157735,392,461,406
157736,389,461,402
157737,382,463,392
157738,373,464,382
157739,366,462,375
157740,360,462,366
157741,354,463,360
157742,349,462,356
157743,343,459,347
157744,336,459,339
157745,332,462,337
157746,335,461,341
157747,343,462,349
157748,350,462,360
157749,358,461,367
157750,363,462,374
157751,369,460,380
157752,371,461,385
157753,380,460,395
157754,386,461,402
157755,391,463,408
157756,389,464,402
157757,382,463,393
157758,372,463,382
157759,366,463,374
157760,359,463,367
157761,355,464,360
157762,352,461,356
157763,343,462,346
157764,338,461,341
157765,333,461,337
157766,335,464,342
157767,342,463,351
157768,350,458,360
157769,358,462,368
157770,364,463,376
157771,368,460,382
157772,372,462,384
157773,381,462,396
157774,386,462,402
157775,391,461,406
157776,388,463,401
157777,382,462,394
157778,373,461,381
157779,366,463,374
157780,361,464,366
157781,355,464,361
157782,351,464,358
157783,344,464,347
157784,335,464,340
157785,333,462,337
157786,336,460,341
157787,343,462,350
157788,352,458,360
157789,359,462,368
157790,363,461,376
157791,369,461,383
157792,372,459,387
157793,380,459,395
157794,386,461,403
157795,392,459,406
157796,389,462,402
157797,382,462,393
157798,375,460,384
157799,367,462,375
157800,360,465,367
157801,355,463,361
157802,351,463,357
157803,344,463,350
157804,338,460,341
157805,334,464,337
157806,335,464,340
157807,341,462,349
157808,348,461,358
157809,356,462,367
157810,364,460,374
157811,368,459,380
157812,372,459,385
157813,378,460,394
157814,387,461,402
157815,390,461,407
157816,389,465,403
157817,383,460,393
157818,374,463,383
157819,367,465,374
157820,360,463,368
157821,356,461,362
157822,352,464,357
157823,344,462,349
157824,338,464,340
157825,334,464,336
157826,336,462,340
157827,342,462,349
157828,350,463,362
157829,357,463,369
157830,365,460,376
157831,368,462,380
157832,373,462,387
157833,380,463,395
157834,387,463,404
157835,392,464,407
157836,388,463,404
157837,384,464,393
157838,376,465,384
157839,368,462,375
157840,362,464,370
157841,357,463,362
157842,352,464,359
157843,345,463,350
157844,337,463,341
157845,332,462,338
157846,336,463,342
157847,339,463,350
157848,346,461,360
157849,356,461,367
157850,362,463,376
157851,367,460,379
157852,372,462,386
157853,379,459,394
157854,386,463,403
157855,391,461,407
157856,389,464,403
157857,381,464,394
157858,375,463,383
157859,368,461,376
157860,362,465,367
157861,356,463,361
157862,352,462,358
157863,346,463,348
157864,338,463,341
157865,334,461,336
157866,335,462,342
157867,341,461,348
157868,349,461,359
157869,356,461,367
157870,363,462,375
157871,368,462,380
157872,373,464,386
157873,380,460,394
157874,387,461,403
157875,391,463,406
157876,388,465,402
157877,382,466,394
157878,373,462,384
157879,367,462,375
157880,361,465,368
157881,354,462,363
157882,352,464,358
157883,346,465,350
157884,339,463,343
157885,332,461,336
157886,335,462,340
157887,342,463,349
157888,351,464,361
157889,357,464,369
157890,364,463,376
157891,369,461,383
157892,374,463,388
157893,380,462,396
157894,388,465,403
157895,391,463,407
157896,390,464,403
157897,383,466,395
157898,376,466,384
157899,369,465,377
157900,360,466,368
157901,356,464,364
157902,353,466,360
157903,344,465,350
157904,339,463,342
157905,333,462,338
157906,335,463,342
157907,343,459,350
157908,350,462,360
157909,357,462,370
157910,364,461,376
157911,368,462,382
157912,374,462,387
157913,381,460,395
157914,387,462,403
157915,392,463,406
157916,388,465,400
157917,383,465,394
157918,375,466,383
157919,366,466,375
157920,361,465,368
157921,356,464,361
157922,351,465,359
157923,344,464,349
157924,338,464,341
157925,332,463,337
157926,336,462,341
157927,341,463,350
157928,350,461,362
157929,356,461,369
157930,364,461,375
157931,367,461,381
157932,373,463,386
157933,380,461,395
157934,387,467,404
157935,392,464,408
157936,389,463,403
157937,384,464,395
157938,376,463,385
157939,368,464,375
157940,361,465,367
157941,355,464,361
157942,352,464,357
157943,345,461,350
157944,336,462,341
157945,332,463,336
157946,334,462,339
157947,342,462,349
157948,349,461,358
157949,357,460,366
157950,362,462,375
157951,368,460,381
157952,372,461,386
157953,379,459,394
157954,386,461,404
157955,392,462,407
157956,389,463,404
157957,384,464,395
157958,375,466,383
157959,368,465,377
157960,362,466,369
157961,358,466,362
157962,352,465,360
157963,347,466,352
157964,339,465,343
157965,334,464,337
157966,336,462,340
157967,341,461,348
157968,349,462,359
157969,355,463,368
157970,364,462,376
157971,368,461,380
157972,373,464,387
157973,380,462,396
157974,388,464,404
157975,393,465,408
157976,390,464,403
157977,385,464,395
157978,375,464,385
157979,368,463,376
157980,360,464,367
157981,354,468,363
157982,350,462,357
157983,345,463,349
157984,337,462,342
157985,334,459,336
157986,336,462,339
157987,342,463,349
157988,350,461,360
157989,356,462,368
157990,363,462,377
157991,367,461,381
157992,372,463,385
157993,379,460,395
157994,386,460,402
157995,392,464,406
157996,390,463,403
157997,383,463,394
157998,375,463,384
157999,368,464,376
158000,362,465,370
158001,357,465,364
158002,352,466,359
158003,346,466,349
158004,338,464,342
158005,332,465,337
158006,334,461,342
158007,342,460,348
158008,348,460,360
158009,357,461,369
158010,363,460,377
158011,367,459,381
158012,372,461,385
158013,378,461,392
158014,387,460,400
158015,391,460,406
158016,389,464,402
158017,382,460,394
158018,374,462,383
158019,366,463,375
158020,360,461,368
158021,354,461,360
158022,351,461,356
158023,343,462,349
158024,336,462,340
158025,331,460,336
158026,334,462,339
158027,340,460,349
158028,348,460,358
158029,356,461,367
158030,363,461,375
158031,366,459,379
158032,371,462,385
158033,378,460,392
158034,385,459,401
158035,391,460,404
158036,388,460,401
158037,382,461,392
158038,374,460,382
158039,365,461,374
158040,359,461,366
158041,354,461,361
158042,349,460,354
158043,344,459,347
158044,335,459,338
158045,332,459,334
158046,333,458,338
158047,338,458,347
158048,344,456,354
158049,353,457,364
158050,360,457,371
158051,364,455,378
158052,371,456,383
158053,376,456,390
158054,384,458,398
158055,387,457,401
158056,387,459,400
158057,380,459,391
158058,372,459,381
158059,363,458,372
158060,358,457,364
158061,353,458,357
158062,347,460,353
158063,344,459,347
158064,336,459,339
158065,331,460,333
158066,331,459,337
158067,336,457,345
158068,344,458,355
158069,352,459,363
158070,359,456,370
158071,364,455,377
158072,368,457,382
158073,375,455,390
158074,382,456,398
158075,386,457,403
158076,386,458,400
158077,379,456,391
158078,371,458,381
158079,362,460,372
158080,357,457,363
158081,352,457,357
158082,347,459,354
158083,342,457,347
158084,335,457,337
158085,328,455,331
158086,327,457,334
158087,335,456,344
158088,343,454,354
158089,352,456,362
158090,358,455,370
158091,363,455,376
158092,367,455,380
158093,373,455,389
158094,382,456,396
158095,386,457,402
158096,385,457,399
158097,379,455,390
158098,372,457,380
158099,364,458,372
158100,357,457,364
158101,352,458,359
158102,348,458,352
158103,340,458,346
158104,334,455,338
158105,331,455,333
158106,331,456,334
158107,338,456,345
158108,345,454,355
158109,352,457,362
158110,361,456,372
158111,365,458,375
158112,367,454,380
158113,373,456,389
158114,382,456,398
158115,385,456,402
158116,383,458,399
158117,379,457,391
158118,373,458,381
158119,363,458,372
158120,358,460,364
158121,354,456,358
158122,348,458,353
158123,343,457,348
158124,335,458,336
158125,331,456,332
158126,330,456,336
158127,337,456,344
158128,344,456,354
158129,354,455,364
158130,359,453,370
158131,363,458,377
158132,367,457,381
158133,374,456,388
158134,382,457,395
158135,387,456,403
158136,386,456,400
158137,379,458,390
158138,372,457,381
158139,363,455,370
158140,358,459,362
158141,352,458,358
158142,347,458,354
158143,341,455,347
158144,333,458,337
158145,331,457,333
158146,331,456,335
158147,337,456,344
158148,345,457,353
158149,353,457,363
158150,359,457,370
158151,362,458,377
158152,368,456,380
158153,374,457,389
158154,382,458,398
158155,386,458,404
158156,387,458,399
158157,379,460,392
158158,372,457,382
158159,364,459,372
158160,359,460,363
158161,356,460,361
158162,349,461,355
158163,344,459,347
158164,338,461,339
158165,331,460,335
158166,333,460,339
158167,339,460,346
158168,346,459,355
158169,354,458,364
158170,361,459,373
158171,365,457,377
158172,370,457,383
158173,375,457,390
158174,383,457,398
158175,387,458,404
158176,386,459,400
158177,380,457,393
158178,371,460,381
158179,365,460,372
158180,359,459,364
158181,354,461,359
158182,348,458,355
158183,345,460,348
158184,335,457,339
158185,330,457,334
158186,331,456,337
158187,337,457,345
158188,344,459,354
158189,352,456,363
158190,359,454,371
158191,364,456,377
158192,370,456,381
158193,373,458,389
158194,382,458,397
158195,387,458,403
158196,386,459,402
158197,379,458,391
158198,372,459,382
158199,364,458,372
158200,359,460,364
158201,352,461,358
158202,347,459,353
158203,344,460,349
158204,335,457,340
158205,331,460,334
158206,331,458,335
158207,338,457,346
158208,345,457,354
158209,352,457,363
158210,359,456,371
158211,364,454,376
158212,368,456,381
158213,374,457,388
158214,383,457,397
158215,388,457,403
158216,386,459,400
158217,381,459,392
158218,374,460,382
158219,364,459,372
158220,357,458,366
158221,355,461,361
158222,349,459,355
158223,343,460,349
158224,336,456,339
158225,331,461,335
158226,331,457,338
158227,338,458,346
158228,345,458,355
158229,353,456,366
158230,360,458,373
158231,366,459,377
158232,370,459,383
158233,375,458,389
158234,384,459,397
158235,388,460,405
158236,387,462,400
158237,381,459,391
158238,373,461,383
158239,366,460,374
158240,360,462,366
158241,353,463,360
158242,349,460,355
158243,345,460,350
158244,336,461,340
158245,331,459,335
158246,332,459,336
158247,338,458,345
158248,346,455,356
158249,354,459,365
158250,359,456,371
158251,364,456,376
158252,369,457,382
158253,375,458,390
158254,381,457,397
158255,388,456,403
158256,386,456,400
158257,381,460,393
158258,373,457,382
158259,366,459,374
158260,360,459,365
158261,353,458,361
158262,349,460,355
158263,344,460,348
158264,336,460,339
158265,330,456,334
158266,331,457,336
158267,336,458,345
158268,344,458,355
158269,353,457,364
158270,359,458,370
158271,365,459,377
158272,370,457,382
158273,375,457,390
158274,383,459,397
158275,389,459,403
158276,388,458,401
158277,380,458,392
158278,371,458,383
158279,364,459,373
158280,358,460,365
158281,352,458,360
158282,347,457,354
158283,343,459,349
158284,334,459,340
158285,330,459,333
158286,329,456,335
158287,335,455,344
158288,344,454,353
158289,352,456,362
158290,357,454,370
158291,362,455,374
158292,367,455,381
158293,371,455,388
158294,380,456,396
158295,386,456,402
158296,385,457,399
158297,381,456,392
158298,372,457,382
158299,365,457,372
158300,356,458,363
158301,353,458,359
158302,346,459,353
158303,344,457,347
158304,334,457,338
158305,329,457,332
158306,332,456,335
158307,338,455,343
158308,344,455,352
158309,354,455,363
158310,359,455,369
158311,363,456,374
158312,368,454,380
158313,373,456,386
158314,381,456,397
158315,386,452,401
158316,386,456,399
158317,378,455,390
158318,371,456,382
158319,363,457,372
158320,358,458,364
158321,352,459,360
158322,347,456,354
158323,343,458,349
158324,336,458,339
158325,330,457,333
158326,329,456,335
158327,335,457,342
158328,342,456,352
158329,353,455,362
158330,358,453,369
158331,362,455,375
158332,368,455,381
158333,372,456,388
158334,379,453,396
158335,388,456,403
158336,388,456,401
158337,379,456,391
158338,372,459,381
158339,365,457,372
158340,358,454,366
158341,353,458,363
158342,348,458,355
158343,344,458,350
158344,334,458,339
158345,330,458,333
158346,330,456,335
158347,337,458,344
158348,343,452,352
158349,351,455,364
158350,359,453,371
158351,363,453,376
158352,368,456,382
158353,373,456,387
158354,383,457,396
158355,388,453,400
158356,387,458,399
158357,380,459,391
158358,372,459,382
158359,365,458,373
158360,358,459,364
158361,352,458,360
158362,348,460,355
158363,343,459,349
158364,335,458,338
158365,329,458,333
158366,330,457,335
158367,337,456,343
158368,345,458,352
158369,353,456,362
158370,358,454,369
158371,363,456,375
158372,368,454,381
158373,374,455,387
158374,381,455,396
158375,387,457,404
158376,387,459,399
158377,381,459,392
158378,372,459,384
158379,364,459,373
158380,357,459,365
158381,354,458,360
158382,349,459,355
158383,345,460,350
158384,336,459,339
158385,329,457,334
158386,330,459,336
158387,336,457,345
158388,345,458,353
158389,353,455,363
158390,359,455,373
158391,365,458,378
158392,369,458,382
158393,374,459,388
158394,382,457,398
158395,388,457,404
158396,387,459,402
158397,381,458,394
158398,374,459,385
158399,366,460,373
158400,359,460,365
158401,355,457,362
158402,350,460,355
158403,346,460,350
158404,335,460,340
158405,332,458,334
158406,330,454,337
158407,338,459,345
158408,344,460,354
158409,352,458,363
158410,358,457,371
158411,363,457,377
158412,369,457,382
158413,373,457,387
158414,382,458,398
158415,388,460,405
158416,389,458,403
158417,382,459,393
158418,375,461,382
158419,366,459,374
158420,359,464,367
158421,356,457,361
158422,351,460,356
158423,347,462,352
158424,336,462,341
158425,330,462,335
158426,331,460,337
158427,339,457,345
158428,345,456,354
158429,354,459,363
158430,361,456,372
158431,365,459,378
158432,370,460,384
158433,374,459,389
158434,383,460,400
158435,389,456,406
158436,387,460,402
158437,384,461,394
158438,376,461,385
158439,366,461,374
158440,359,461,366
158441,355,460,362
158442,349,460,356
158443,345,461,352
158444,338,462,341
158445,332,459,336
158446,333,461,338
158447,340,459,346
158448,344,461,356
158449,354,461,365
158450,362,460,373
158451,366,459,379
158452,371,462,384
158453,374,459,388
158454,384,460,399
158455,390,461,405
158456,389,462,403
158457,384,461,395
158458,376,456,386
158459,367,461,376
158460,360,461,368
158461,356,459,364
158462,352,462,357
158463,346,461,351
158464,336,460,341
158465,331,461,335
158466,332,460,337
158467,339,460,345
158468,345,461,355
158469,353,457,364
158470,359,459,372
158471,364,458,377
158472,370,460,383
158473,375,459,389
158474,384,458,398
158475,389,460,404
158476,389,462,403
158477,382,459,394
158478,375,459,385
158479,367,462,375
158480,360,461,369
158481,356,463,362
158482,351,461,356
158483,347,462,352
158484,338,460,342
158485,333,462,335
158486,331,461,337
158487,339,460,345
158488,346,457,354
158489,353,460,364
158490,359,461,371
158491,364,461,378
158492,369,460,383
158493,373,459,389
158494,381,460,398
158495,389,460,405
158496,389,460,402
158497,383,460,395
158498,374,460,386
158499,367,462,374
158500,362,463,368
158501,355,459,363
158502,348,463,356
158503,346,462,351
158504,336,460,342
158505,332,460,335
158506,331,458,337
158507,338,458,344
158508,344,460,356
158509,354,458,363
158510,359,459,372
158511,365,456,377
158512,369,459,383
158513,375,459,388
158514,384,457,399
158515,388,460,405
158516,390,460,404
158517,383,461,396
158518,375,460,386
158519,366,461,374
158520,361,461,368
158521,356,461,363
158522,351,461,357
158523,347,460,353
158524,339,461,341
158525,331,461,335
158526,332,461,337
158527,338,459,345
158528,346,460,352
158529,354,459,364
158530,361,457,373
158531,365,460,376
158532,370,460,384
158533,375,461,389
158534,383,459,398
158535,388,461,404
158536,388,463,403
158537,384,460,395
158538,376,463,385
158539,366,463,375
158540,359,463,367
158541,356,463,363
158542,350,462,356
158543,347,464,352
158544,337,461,340
158545,331,460,336
158546,333,461,337
158547,338,461,345
158548,345,460,354
158549,354,461,365
158550,360,459,373
158551,365,461,379
158552,371,458,384
158553,373,459,388
158554,383,460,399
158555,390,457,406
158556,391,462,403
158557,383,463,394
158558,375,463,386
158559,366,459,374
158560,360,463,369
158561,357,462,363
158562,350,462,357
158563,344,463,352
158564,338,460,342
158565,332,461,337
158566,332,461,337
158567,338,460,346
158568,345,459,355
158569,354,459,363
158570,361,460,373
158571,364,458,377
158572,370,460,383
158573,374,459,387
158574,385,461,399
158575,389,457,405
158576,390,462,404
158577,382,463,395
158578,377,461,387
158579,367,462,375
158580,362,462,368
158581,355,461,363
158582,350,461,356
158583,346,462,353
158584,337,462,341
158585,332,463,336
158586,332,461,336
158587,338,459,345
158588,345,459,355
158589,354,460,364
158590,359,459,373
158591,363,458,378
158592,370,457,383
158593,375,461,389
158594,384,460,399
158595,389,460,405
158596,389,462,403
158597,383,462,397
158598,377,462,386
158599,367,459,376
158600,360,462,368
158601,357,461,363
158602,351,461,356
158603,346,463,351
158604,338,460,341
158605,333,462,336
158606,331,459,337
158607,337,457,346
158608,343,458,354
158609,352,459,365
158610,359,461,373
158611,364,457,378
158612,370,457,385
158613,374,459,389
158614,384,460,400
158615,389,462,406
158616,391,461,404
158617,384,460,395
158618,377,463,387
158619,368,462,376
158620,359,463,368
158621,357,462,362
158622,351,461,355
158623,348,463,352
158624,338,461,341
158625,334,460,335
158626,332,462,337
158627,337,463,346
158628,345,463,354
158629,354,460,364
158630,361,458,371
158631,364,460,377
158632,371,460,384
158633,376,462,390
158634,384,459,400
158635,388,461,404
158636,391,462,403
158637,384,460,397
158638,377,461,386
158639,368,463,376
158640,361,462,368
158641,356,462,363
158642,351,461,357
158643,347,461,353
158644,340,462,342
158645,333,462,336
158646,334,462,338
158647,339,460,345
158648,345,461,354
158649,354,461,366
158650,361,461,373
158651,365,461,377
158652,373,458,384
158653,376,460,389
158654,384,461,400
158655,389,463,407
158656,390,462,404
158657,386,461,398
158658,379,462,389
158659,369,462,376
158660,362,464,368
158661,357,464,366
158662,350,463,357
158663,348,463,353
158664,339,463,342
158665,334,460,337
158666,333,462,339
158667,339,462,346
158668,345,461,354
158669,355,458,365
158670,361,461,372
158671,366,459,375
158672,371,458,384
158673,373,463,387
158674,383,462,399
158675,391,462,406
158676,391,463,405
158677,385,463,397
158678,379,464,388
158679,369,464,377
158680,362,464,369
158681,359,463,364
158682,352,464,357
158683,348,461,353
158684,340,463,343
158685,333,463,337
158686,335,461,338
158687,339,460,346
158688,346,463,355
158689,354,462,365
158690,361,462,374
158691,365,462,378
158692,372,461,385
158693,376,460,389
158694,383,461,399
158695,390,462,406
158696,392,463,405
158697,386,463,397
158698,377,464,390
158699,368,464,376
158700,362,463,369
158701,358,461,364
158702,351,462,360
158703,348,463,354
158704,338,465,344
158705,334,463,337
158706,333,462,338
158707,338,460,346
158708,345,460,355
158709,355,457,365
158710,361,458,373
158711,365,458,379
158712,371,460,384
158713,375,460,388
158714,384,462,400
158715,389,463,405
158716,390,462,405
158717,385,462,396
158718,379,462,388
158719,369,464,376
158720,362,464,368
158721,359,464,366
158722,353,464,358
158723,349,463,354
158724,340,462,343
158725,334,463,338
158726,332,461,337
158727,338,462,346
158728,345,462,354
158729,355,462,365
158730,361,460,373
158731,365,461,378
158732,372,459,384
158733,375,461,388
158734,385,460,399
158735,391,464,405
158736,392,463,406
158737,384,463,396
158738,378,463,388
158739,371,464,377
158740,361,459,370
158741,356,462,364
158742,350,465,358
158743,347,462,355
158744,339,464,344
158745,334,461,337
158746,333,461,337
158747,340,460,346
158748,345,462,354
158749,354,461,365
158750,360,459,373
158751,365,459,379
158752,372,460,386
158753,373,460,390
158754,383,460,400
158755,390,462,406
158756,390,461,404
158757,383,461,397
158758,377,463,388
158759,368,460,376
158760,362,462,370
158761,358,464,365
158762,352,463,360
158763,349,462,355
158764,340,464,342
158765,335,462,337
158766,334,462,338
158767,340,460,346
158768,345,461,354
158769,353,461,365
158770,359,459,371
158771,366,458,377
158772,371,460,384
158773,375,460,388
158774,383,460,398
158775,388,462,405
158776,389,461,405
158777,384,460,396
158778,379,463,389
158779,369,462,376
158780,364,463,370
158781,358,462,365
158782,353,463,357
158783,348,462,354
158784,340,462,343
158785,335,462,339
158786,333,462,338
158787,338,461,346
158788,344,461,354
158789,353,460,365
158790,359,460,372
158791,364,461,379
158792,370,460,383
158793,374,460,388
158794,383,461,400
158795,391,462,404
158796,391,461,404
158797,385,465,397
158798,378,461,389
158799,368,460,376
158800,361,462,369
158801,358,463,365
158802,352,464,359
158803,347,463,354
158804,338,460,343
158805,333,463,337
158806,332,462,337
158807,338,462,345
158808,343,461,354
158809,353,461,365
158810,360,459,372
158811,365,461,377
158812,369,460,384
158813,374,461,387
158814,383,460,399
158815,389,462,405
158816,389,462,404
158817,386,460,397
158818,379,464,388
158819,370,465,377
158820,363,464,369
158821,357,462,365
158822,352,465,359
158823,349,462,353
158824,339,463,342
158825,333,463,337
158826,334,461,340
158827,339,461,347
158828,346,462,355
158829,355,461,367
158830,363,462,373
158831,366,459,378
158832,371,461,385
158833,376,462,387
158834,385,461,399
158835,389,463,406
158836,391,462,404
158837,386,463,399
158838,379,464,389
158839,370,466,378
158840,363,464,369
158841,359,463,366
158842,353,465,359
158843,349,463,354
158844,341,463,344
158845,335,464,337
158846,334,464,339
158847,339,462,346
158848,345,460,353
158849,355,462,366
158850,361,463,372
158851,366,462,379
158852,372,461,386
158853,376,462,389
158854,384,462,399
158855,390,463,406
158856,391,462,406
158857,386,459,398
158858,379,463,388
158859,370,463,378
158860,362,463,370
158861,358,465,366
158862,351,463,361
158863,348,463,353
158864,340,460,344
158865,334,458,337
158866,334,461,336
158867,338,462,346
158868,345,460,352
158869,353,461,364
158870,360,461,372
158871,365,461,377
158872,370,461,383
158873,375,462,389
158874,384,460,398
158875,389,460,406
158876,392,463,405
158877,385,462,398
158878,380,463,388
158879,369,461,377
158880,364,463,370
158881,357,464,363
158882,351,463,358
158883,347,464,354
158884,340,462,344
158885,335,461,337
158886,333,460,338
158887,337,460,345
158888,344,460,353
158889,354,459,363
158890,360,456,372
158891,364,461,377
158892,371,460,384
158893,373,460,385
158894,382,459,397
158895,389,461,404
158896,391,461,403
158897,383,462,397
158898,377,461,389
158899,367,462,376
158900,363,461,369
158901,357,464,364
158902,351,463,356
158903,348,463,354
158904,339,463,343
158905,333,460,337
158906,333,461,337
158907,337,460,345
158908,343,460,352
158909,352,462,365
158910,359,461,370
158911,364,460,376
158912,370,462,384
158913,373,460,388
158914,381,460,397
158915,388,462,403
158916,392,460,405
158917,384,459,397
158918,379,461,388
158919,369,462,376
158920,362,463,369
158921,356,464,365
158922,350,463,358
158923,347,463,353
158924,338,462,342
158925,334,462,336
158926,332,460,336
158927,338,459,344
158928,343,459,354
158929,351,461,363
158930,359,459,371
158931,363,459,376
158932,371,460,384
158933,373,461,386
158934,382,461,398
158935,389,460,404
158936,391,460,403
158937,385,462,397
158938,378,460,389
158939,368,462,377
158940,362,461,370
158941,357,463,364
158942,351,462,357
158943,348,462,351
158944,337,461,344
158945,333,460,337
158946,331,460,335
158947,335,461,344
158948,344,460,352
158949,354,459,364
158950,360,460,371
158951,364,460,376
158952,369,458,383
158953,372,461,387
158954,382,460,398
158955,387,458,403
158956,390,462,406
158957,384,463,397
158958,378,461,388
158959,368,463,376
158960,362,463,370
158961,357,462,366
158962,353,463,357
158963,348,462,353
158964,340,462,343
158965,333,462,338
158966,333,461,337
158967,337,462,343
158968,346,460,352
158969,353,460,363
158970,359,457,372
158971,364,461,375
158972,371,460,383
158973,373,460,387
158974,382,460,399
158975,387,459,404
158976,390,461,405
158977,385,460,397
158978,379,461,389
158979,369,462,378
158980,362,464,369
158981,358,462,364
158982,351,460,358
158983,347,462,352
158984,339,461,343
158985,333,459,338
158986,332,459,336
158987,336,461,343
158988,343,459,351
158989,351,459,364
158990,360,459,370
158991,363,459,375
158992,370,458,383
158993,374,461,388
158994,382,460,398
158995,389,459,404
158996,390,458,406
158997,384,462,396
158998,379,462,388
158999,370,463,378
159000,363,463,370
159001,356,462,364
159002,352,462,358
159003,348,461,353
159004,339,462,343
159005,335,461,335
159006,332,461,336
159007,337,460,344
159008,343,455,351
159009,352,459,364
159010,358,457,369
159011,363,458,376
159012,370,459,383
159013,374,460,386
159014,382,459,397
159015,388,462,404
159016,391,462,403
159017,385,462,399
159018,378,462,390
159019,369,462,378
159020,364,461,370
159021,357,462,365
159022,352,461,359
159023,348,462,354
159024,339,459,343
159025,333,460,336
159026,331,460,335
159027,336,459,343
159028,342,459,351
159029,352,458,363
159030,358,460,370
159031,363,459,376
159032,369,458,382
159033,373,460,387
159034,380,461,397
159035,387,460,404
159036,389,461,405
159037,384,460,396
159038,377,461,390
159039,369,462,376
159040,361,460,370
159041,357,462,363
159042,351,460,357
159043,348,460,353
159044,338,460,342
159045,332,461,335
159046,331,460,335
159047,336,459,343
159048,342,459,351
159049,352,460,362
159050,358,460,369
159051,362,458,374
159052,370,459,382
159053,372,459,385
159054,382,457,397
159055,388,458,403
159056,389,462,404
159057,384,462,397
159058,379,463,389
159059,369,462,377
159060,363,461,369
159061,356,461,365
159062,351,463,358
159063,348,464,355
159064,340,463,345
159065,334,463,337
159066,333,460,337
159067,337,461,345
159068,343,462,352
159069,353,461,363
159070,358,459,369
159071,362,459,376
159072,370,461,383
159073,375,458,387
159074,384,461,398
159075,388,461,404
159076,391,460,406
159077,386,461,398
159078,379,463,390
159079,370,461,378
159080,364,464,371
159081,359,464,364
159082,352,463,358
159083,349,464,354
159084,339,464,344
159085,334,462,338
159086,334,462,337
159087,338,463,346
159088,344,459,352
159089,354,462,364
159090,359,462,372
159091,366,462,377
159092,370,462,385
159093,374,463,388
159094,383,462,400
159095,390,464,404
159096,392,463,407
159097,387,463,399
159098,381,465,389
159099,371,464,377
159100,366,465,372
159101,359,464,366
159102,355,466,360
159103,350,466,356
159104,342,466,347
159105,336,465,340
159106,333,466,339
159107,340,465,347
159108,346,460,355
159109,356,464,365
159110,360,463,372
159111,366,464,379
159112,372,463,385
159113,375,463,390
159114,384,463,399
159115,391,461,406
159116,393,466,407
159117,388,465,399
159118,381,465,391
159119,372,462,381
159120,366,465,374
159121,360,467,367
159122,356,465,362
159123,351,466,357
159124,340,465,346
159125,337,463,341
159126,334,464,338
159127,338,465,346
159128,343,463,354
159129,353,463,365
159130,360,461,373
159131,367,464,379
159132,372,460,386
159133,377,463,389
159134,385,463,399
159135,391,460,406
159136,393,466,408
159137,389,466,402
159138,381,467,394
159139,371,467,380
159140,366,466,374
159141,360,465,368
159142,354,467,361
159143,352,467,357
159144,342,465,347
159145,338,468,342
159146,336,466,340
159147,341,466,348
159148,346,463,356
159149,356,466,368
159150,362,463,373
159151,368,465,380
159152,372,463,387
159153,376,464,391
159154,386,462,400
159155,393,464,407
159156,393,467,408
159157,389,470,402
159158,383,467,393
159159,374,469,382
159160,367,468,374
159161,361,469,370
159162,355,467,363
159163,351,467,358
159164,345,467,347
159165,340,468,342
159166,336,468,340
159167,341,468,347
159168,349,466,356
159169,357,466,367
159170,363,465,374
159171,368,464,381
159172,374,465,387
159173,377,466,390
159174,386,466,400
159175,391,467,408
159176,394,464,409
159177,387,467,400
159178,384,468,394
159179,373,467,382
159180,367,468,374
159181,363,470,369
159182,355,468,364
159183,352,468,358
159184,345,468,348
159185,338,468,344
159186,336,469,341
159187,342,467,349
159188,348,464,355
159189,357,464,367
159190,361,466,374
159191,368,467,380
159192,374,464,388
159193,378,466,390
159194,386,464,401
159195,391,468,408
159196,395,464,410
159197,389,467,402
159198,382,468,393
159199,373,469,382
159200,367,469,375
159201,362,468,370
159202,356,469,362
159203,353,470,359
159204,345,468,349
159205,339,466,342
159206,336,468,340
159207,342,465,348
159208,346,467,357
159209,356,467,368
159210,361,465,375
159211,368,469,382
159212,374,465,388
159213,378,467,391
159214,385,468,403
159215,393,469,408
159216,393,469,409
159217,389,469,404
159218,384,472,395
159219,375,469,385
159220,368,470,376
159221,364,471,369
159222,357,472,365
159223,355,471,359
159224,344,469,350
159225,340,470,344
159226,339,470,343
159227,342,468,350
159228,349,469,358
159229,358,468,369
159230,364,470,377
159231,369,469,382
159232,376,468,391
159233,378,469,393
159234,389,470,403
159235,394,470,409
159236,396,469,413
159237,392,471,404
159238,387,471,397
159239,377,471,384
159240,370,471,378
159241,365,469,372
159242,360,473,364
159243,356,471,359
159244,346,473,349
159245,339,472,345
159246,339,470,344
159247,343,470,350
159248,349,470,359
159249,358,467,369
159250,364,469,377
159251,370,468,382
159252,376,471,390
159253,380,470,393
159254,389,468,403
159255,395,469,410
159256,397,470,412
159257,392,471,405
159258,386,473,399
159259,377,471,387
159260,371,471,378
159261,365,473,372
159262,359,473,365
159263,356,474,362
159264,348,470,352
159265,342,472,345
159266,339,473,344
159267,344,469,351
159268,351,469,360
159269,359,471,371
159270,365,470,378
159271,369,469,384
159272,376,470,390
159273,379,470,394
159274,388,470,404
159275,396,472,412
159276,396,470,413
159277,393,474,406
159278,387,473,398
159279,378,473,386
159280,371,474,378
159281,366,474,373
159282,360,475,366
159283,356,474,363
159284,349,472,352
159285,343,473,347
159286,340,474,345
159287,344,472,351
159288,351,472,359
159289,360,472,370
159290,367,472,379
159291,371,472,384
159292,378,474,392
159293,381,472,394
159294,389,469,406
159295,398,471,412
159296,398,471,414
159297,394,474,408
159298,387,473,400
159299,378,473,387
159300,371,474,379
159301,365,474,372
159302,360,474,366
159303,356,472,362
159304,348,471,352
159305,342,472,345
159306,339,470,344
159307,343,471,350
159308,350,468,359
159309,359,469,370
159310,364,470,377
159311,370,470,383
159312,374,470,389
159313,378,466,392
159314,386,468,403
159315,393,467,409
159316,397,469,413
159317,391,470,406
159318,385,469,397
159319,376,470,385
159320,368,471,377
159321,363,469,371
159322,358,469,363
159323,353,466,359
159324,346,467,349
159325,340,467,342
159326,335,463,340
159327,339,466,347
