Time (ms),Bicep,Shoulder,Tricep
466104,348,459,355
466105,354,460,364
466106,363,456,372
466107,369,459,381
466108,374,461,387
466109,383,459,400
466110,390,461,409
466111,394,461,413
466112,390,461,408
466113,383,461,399
466114,372,462,386
466115,363,462,375
466116,360,463,368
466117,352,461,359
466118,347,457,353
466119,339,461,340
466120,330,459,331
466121,327,462,327
466122,331,461,334
466123,340,461,342
466124,349,459,354
466125,357,462,364
466126,361,460,372
466127,370,460,381
466128,374,461,385
466129,383,460,398
466130,390,458,408
466131,395,460,414
466132,390,460,408
466133,382,461,399
466134,372,462,385
466135,366,462,374
466136,359,463,367
466137,352,462,358
466138,349,461,354
466139,337,461,341
466140,331,460,332
466141,326,461,325
466142,332,460,332
466143,336,460,342
466144,350,461,355
466145,356,460,363
466146,363,459,372
466147,368,460,380
466148,372,458,387
466149,383,461,400
466150,390,460,409
466151,393,459,412
466152,390,460,407
466153,382,461,398
466154,369,461,386
466155,365,461,375
466156,356,462,369
466157,351,461,357
466158,347,461,353
466159,337,461,342
466160,330,458,332
466161,326,460,327
466162,331,461,332
466163,336,461,342
466164,349,459,353
466165,355,458,363
466166,363,456,372
466167,369,458,381
466168,371,460,387
466169,383,460,399
466170,391,462,409
466171,395,459,413
466172,391,463,407
466173,384,462,399
466174,372,462,385
466175,367,461,375
466176,359,463,368
466177,352,461,359
466178,348,462,353
466179,339,459,339
466180,330,460,330
466181,327,462,325
466182,331,459,333
466183,338,460,342
466184,348,460,356
466185,357,460,363
466186,362,460,372
466187,369,459,381
466188,375,461,386
466189,382,462,400
466190,390,460,409
466191,394,461,416
466192,389,461,408
466193,382,460,397
466194,372,462,385
466195,365,461,376
466196,358,463,367
466197,352,461,358
466198,347,462,353
466199,338,461,342
466200,329,460,332
466201,326,459,326
466202,331,459,332
466203,337,458,342
466204,348,459,354
466205,356,459,363
466206,361,459,372
466207,369,460,381
466208,373,459,387
466209,383,460,399
466210,391,461,410
466211,395,463,413
466212,390,460,407
466213,384,461,398
466214,372,462,384
466215,366,460,374
466216,358,461,367
466217,351,461,359
466218,348,461,353
466219,337,462,339
466220,329,459,331
466221,327,459,325
466222,331,458,332
466223,337,459,341
466224,346,459,354
466225,355,458,362
466226,360,459,371
466227,367,460,381
466228,371,459,387
466229,383,459,400
466230,390,462,409
466231,393,460,413
466232,389,460,406
466233,382,461,397
466234,373,459,384
466235,365,459,374
466236,358,460,366
466237,351,459,357
466238,346,459,352
466239,336,458,339
466240,329,459,330
466241,327,459,326
466242,332,460,333
466243,337,460,342
466244,347,459,354
466245,355,458,364
466246,362,458,372
466247,368,459,382
466248,372,460,388
466249,382,462,401
466250,389,461,408
466251,394,462,412
466252,388,460,407
466253,382,462,398
466254,373,460,383
466255,363,462,375
466256,358,463,367
466257,350,462,356
466258,344,460,351
466259,337,457,339
466260,330,460,331
466261,326,460,326
466262,331,458,334
466263,338,458,341
466264,348,457,355
466265,355,456,364
466266,361,457,373
466267,370,461,382
466268,372,459,387
466269,384,460,401
466270,391,460,410
466271,396,458,413
466272,389,462,406
466273,382,461,397
466274,371,460,384
466275,363,459,375
466276,358,462,366
466277,351,460,357
466278,348,458,351
466279,338,460,339
466280,330,459,329
466281,326,459,327
466282,331,457,333
466283,336,456,341
466284,347,459,353
466285,353,459,364
466286,361,459,374
466287,367,461,381
466288,373,459,386
466289,384,458,400
466290,391,456,409
466291,394,461,414
466292,390,461,406
466293,384,461,398
466294,373,462,385
466295,364,460,373
466296,358,461,366
466297,350,460,358
466298,347,459,352
466299,337,460,339
466300,329,459,330
466301,326,459,326
466302,331,459,332
466303,339,458,341
466304,349,459,356
466305,356,459,363
466306,361,460,371
466307,367,459,381
466308,372,458,388
466309,383,461,402
466310,391,462,409
466311,392,458,413
466312,388,460,407
466313,382,461,398
466314,370,459,383
466315,364,460,374
466316,358,457,366
466317,349,458,357
466318,346,461,350
466319,336,460,338
466320,330,460,329
466321,326,459,326
466322,330,458,332
466323,337,457,341
466324,349,459,355
466325,355,459,365
466326,361,460,373
466327,369,458,382
466328,374,459,387
466329,384,460,402
466330,389,461,410
466331,393,459,412
466332,388,462,407
466333,380,460,398
466334,371,462,384
466335,364,461,374
466336,358,462,366
466337,351,461,357
466338,346,460,351
466339,336,460,337
466340,328,459,328
466341,326,455,325
466342,331,460,333
466343,337,459,341
466344,348,460,354
466345,355,461,364
466346,362,459,373
466347,370,460,382
466348,372,461,387
466349,383,459,402
466350,391,460,409
466351,394,460,412
466352,388,460,407
466353,382,459,398
466354,372,461,384
466355,364,460,375
466356,360,461,367
466357,351,460,355
466358,345,458,351
466359,338,460,338
466360,329,458,328
466361,325,460,326
466362,329,459,333
466363,336,458,341
466364,349,458,354
466365,355,457,363
466366,362,457,372
466367,368,460,381
466368,373,458,386
466369,384,458,400
466370,389,460,409
466371,393,459,412
466372,388,460,405
466373,381,459,396
466374,371,460,383
466375,363,460,374
466376,357,460,366
466377,349,460,357
466378,344,459,351
466379,335,457,337
466380,329,460,328
466381,327,458,325
466382,331,458,332
466383,338,460,341
466384,348,459,355
466385,354,459,366
466386,361,460,372
466387,368,459,382
466388,373,458,388
466389,383,458,402
466390,390,461,408
466391,393,459,413
466392,388,459,406
466393,379,461,397
466394,370,458,383
466395,362,461,374
466396,355,460,365
466397,351,463,356
466398,346,457,351
466399,335,458,338
466400,329,457,330
466401,326,459,326
466402,330,458,331
466403,338,461,341
466404,348,459,356
466405,356,458,363
466406,363,461,371
466407,370,460,382
466408,373,459,388
466409,384,461,402
466410,391,462,410
466411,395,459,412
466412,388,460,407
466413,382,462,397
466414,370,461,383
466415,364,462,374
466416,357,459,365
466417,349,460,356
466418,346,460,350
466419,334,459,338
466420,329,460,330
466421,325,459,324
466422,331,460,333
466423,338,459,342
466424,348,457,355
466425,356,458,365
466426,363,459,373
466427,370,459,381
466428,372,457,387
466429,383,461,401
466430,389,462,410
466431,393,462,412
466432,388,461,406
466433,381,460,397
466434,371,460,382
466435,363,460,374
466436,357,459,365
466437,350,457,357
466438,345,458,353
466439,336,461,336
466440,330,459,329
466441,327,457,325
466442,331,456,333
466443,338,460,341
466444,348,459,355
466445,356,460,364
466446,364,459,372
466447,369,461,382
466448,373,459,386
466449,382,460,401
466450,389,459,410
466451,393,459,414
466452,388,459,407
466453,381,460,397
466454,371,461,382
466455,364,460,374
466456,357,461,365
466457,349,459,357
466458,345,458,350
466459,335,461,338
466460,329,458,328
466461,326,460,326
466462,331,455,333
466463,339,459,343
466464,349,458,356
466465,357,459,365
466466,361,458,371
466467,369,459,381
466468,373,458,388
466469,384,460,400
466470,393,461,410
466471,394,461,412
466472,388,460,406
466473,381,462,396
466474,370,459,383
466475,362,459,374
466476,356,459,366
466477,350,461,357
466478,345,459,351
466479,337,459,337
466480,327,459,327
466481,324,457,324
466482,331,459,331
466483,337,456,340
466484,349,460,353
466485,355,459,364
466486,362,457,371
466487,366,459,381
466488,372,461,386
466489,384,459,401
466490,390,457,408
466491,392,460,412
466492,387,458,403
466493,382,459,395
466494,369,457,381
466495,360,461,372
466496,356,459,366
466497,349,460,356
466498,345,456,348
466499,334,459,338
466500,328,460,329
466501,325,456,325
466502,331,458,333
466503,338,459,340
466504,349,459,355
466505,355,456,364
466506,361,458,373
466507,368,459,381
466508,373,459,388
466509,384,460,400
466510,390,460,409
466511,394,461,414
466512,388,462,405
466513,379,461,396
466514,371,460,383
466515,361,461,372
466516,356,460,366
466517,348,461,355
466518,345,460,349
466519,335,459,336
466520,328,460,328
466521,325,456,325
466522,332,461,333
466523,340,460,342
466524,349,459,355
466525,356,457,366
466526,361,456,372
466527,369,459,381
466528,373,460,386
466529,384,458,402
466530,389,458,409
466531,392,459,413
466532,387,463,404
466533,382,459,397
466534,368,460,383
466535,361,460,373
466536,356,457,365
466537,350,455,355
466538,345,460,349
466539,335,459,337
466540,328,460,328
466541,326,458,323
466542,332,458,333
466543,338,459,341
466544,350,458,356
466545,355,459,364
466546,363,458,372
466547,370,459,381
466548,374,460,387
466549,383,459,401
466550,389,460,410
466551,393,460,413
466552,388,460,405
466553,381,459,396
466554,369,459,381
466555,361,460,373
466556,357,461,367
466557,349,459,356
466558,345,459,352
466559,334,460,337
466560,329,460,329
466561,326,461,325
466562,332,459,335
466563,338,459,341
466564,349,460,357
466565,356,458,366
466566,362,461,373
466567,369,460,381
466568,375,461,390
466569,385,461,401
466570,391,460,412
466571,395,460,414
466572,388,460,407
466573,381,459,396
466574,372,462,384
466575,365,461,373
466576,357,460,367
466577,352,462,358
466578,346,461,352
466579,336,459,338
466580,328,460,330
466581,326,463,327
466582,332,460,334
466583,339,458,344
466584,349,459,358
466585,357,457,368
466586,363,460,376
466587,370,462,384
466588,375,460,388
466589,384,458,401
466590,391,465,411
466591,394,460,414
466592,387,459,405
466593,382,462,397
466594,370,462,383
466595,364,461,373
466596,357,462,366
466597,350,460,357
466598,346,462,351
466599,336,460,337
466600,330,459,328
466601,324,457,325
466602,332,458,334
466603,338,458,342
466604,349,459,356
466605,356,456,366
466606,363,459,374
466607,370,456,383
466608,374,458,388
466609,384,459,402
466610,393,461,410
466611,394,458,413
466612,388,459,404
466613,381,459,396
466614,370,461,383
466615,363,459,374
466616,357,459,366
466617,348,459,356
466618,345,460,351
466619,335,459,337
466620,328,457,327
466621,325,456,325
466622,333,460,334
466623,339,456,341
466624,349,457,355
466625,357,460,365
466626,362,457,373
466627,370,458,383
466628,374,457,387
466629,385,459,401
466630,392,462,409
466631,394,459,413
466632,387,459,404
466633,380,460,394
466634,370,460,384
466635,362,460,373
466636,354,460,365
466637,349,460,357
466638,344,459,351
466639,336,463,337
466640,328,458,330
466641,327,459,326
466642,331,457,332
466643,339,458,343
466644,350,459,357
466645,355,460,365
466646,361,459,373
466647,369,458,382
466648,374,459,388
466649,385,456,402
466650,392,460,410
466651,393,459,414
466652,387,458,405
466653,381,460,394
466654,369,459,380
466655,360,461,371
466656,357,458,363
466657,349,460,353
466658,343,460,349
466659,334,457,335
466660,328,456,327
466661,324,457,324
466662,331,457,333
466663,338,457,342
466664,349,459,355
466665,356,459,364
466666,362,458,371
466667,367,455,379
466668,374,457,387
466669,384,456,400
466670,390,458,409
466671,392,459,411
466672,386,460,404
466673,379,458,396
466674,370,460,381
466675,362,457,372
466676,354,459,363
466677,348,458,354
466678,344,455,347
466679,334,456,334
466680,326,455,325
466681,323,454,324
466682,329,455,332
466683,337,454,339
466684,348,456,353
466685,355,453,363
466686,359,455,372
466687,368,456,379
466688,371,455,386
466689,381,457,400
466690,388,456,407
466691,390,458,410
466692,384,458,404
466693,376,457,392
466694,366,456,377
466695,358,458,368
466696,353,457,362
466697,347,455,353
466698,343,456,348
466699,332,454,334
466700,325,454,325
466701,323,454,322
466702,331,454,331
466703,337,452,340
466704,347,453,353
466705,353,456,364
466706,360,453,371
466707,368,456,378
466708,371,456,386
466709,383,452,398
466710,389,456,408
466711,390,456,410
466712,384,456,401
466713,376,454,393
466714,365,456,378
466715,359,455,365
466716,354,457,361
466717,347,455,351
466718,341,455,346
466719,330,455,332
466720,326,455,324
466721,322,453,321
466722,329,454,330
466723,336,454,340
466724,346,455,354
466725,354,453,363
466726,359,454,369
466727,367,454,379
466728,371,452,384
466729,382,453,399
466730,387,456,406
466731,390,454,410
466732,383,456,401
466733,378,454,391
466734,364,455,378
466735,357,457,369
466736,353,456,360
466737,345,454,352
466738,340,456,345
466739,331,455,331
466740,326,454,323
466741,322,455,320
466742,330,454,330
466743,335,452,339
466744,346,454,351
466745,352,451,363
466746,359,452,369
466747,365,454,378
466748,370,454,384
466749,379,454,399
466750,388,453,407
466751,391,455,409
466752,383,457,399
466753,374,455,391
466754,365,457,378
466755,357,455,367
466756,352,451,361
466757,344,454,352
466758,341,454,344
466759,331,455,331
466760,324,453,324
466761,323,454,322
466762,329,453,330
466763,335,452,340
466764,346,452,353
466765,354,455,364
466766,358,454,370
466767,367,452,378
466768,370,451,384
466769,382,454,398
466770,387,454,407
466771,390,453,409
466772,382,455,399
466773,376,454,391
466774,364,454,377
466775,357,454,367
466776,352,455,360
466777,346,453,351
466778,339,454,345
466779,329,454,331
466780,324,452,322
466781,322,454,320
466782,327,453,329
466783,336,453,337
466784,345,453,352
466785,352,452,362
466786,360,453,370
466787,366,454,378
466788,370,453,384
466789,380,455,399
466790,388,453,408
466791,391,457,406
466792,384,456,399
466793,375,455,390
466794,366,457,377
466795,358,454,367
466796,353,453,361
466797,346,456,351
466798,342,456,346
466799,331,455,333
466800,323,454,323
466801,325,454,322
466802,329,455,332
466803,335,456,341
466804,346,455,355
466805,355,450,363
466806,360,454,370
466807,368,454,378
466808,373,455,385
466809,383,452,398
466810,388,456,408
466811,390,456,409
466812,384,456,401
466813,377,455,393
466814,366,455,378
466815,357,455,368
466816,352,458,361
466817,346,455,352
466818,342,456,348
466819,331,455,334
466820,325,457,326
466821,323,457,324
466822,330,456,331
466823,337,456,342
466824,347,455,355
466825,356,456,365
466826,362,458,373
466827,368,455,381
466828,371,453,386
466829,383,456,400
466830,389,458,410
466831,390,457,412
466832,384,459,403
466833,376,457,394
466834,365,458,379
466835,359,457,369
466836,355,457,362
466837,345,456,353
466838,341,455,348
466839,331,456,336
466840,324,458,325
466841,324,456,322
466842,330,457,332
466843,337,455,342
466844,348,458,354
466845,355,456,366
466846,362,457,372
466847,368,457,381
466848,374,457,388
466849,385,459,402
466850,391,457,410
466851,391,455,411
466852,386,457,403
466853,377,457,393
466854,366,458,379
466855,359,458,370
466856,353,456,362
466857,346,458,354
466858,341,458,347
466859,333,458,333
466860,326,456,324
466861,325,456,324
466862,329,454,333
466863,337,457,342
466864,348,457,355
466865,354,454,365
466866,361,457,373
466867,370,456,380
466868,373,459,388
466869,384,457,401
466870,392,456,409
466871,391,458,412
466872,385,458,402
466873,377,458,393
466874,367,460,379
466875,359,460,370
466876,355,459,363
466877,348,459,354
466878,343,458,348
466879,332,455,335
466880,326,457,327
466881,325,456,325
466882,334,458,332
466883,340,459,344
466884,349,458,356
466885,357,453,366
466886,362,458,373
466887,369,459,381
466888,374,459,387
466889,386,457,401
466890,392,460,412
466891,393,460,411
466892,387,460,404
466893,379,460,393
466894,369,459,380
466895,361,459,370
466896,355,462,365
466897,348,460,356
466898,345,460,349
466899,335,462,337
466900,328,460,328
466901,327,458,328
466902,333,461,334
466903,340,457,345
466904,351,460,357
466905,359,459,368
466906,365,458,375
466907,372,460,384
466908,376,461,391
466909,387,461,404
466910,393,458,411
466911,394,461,413
466912,387,462,405
466913,382,460,394
466914,371,461,381
466915,363,462,372
466916,357,462,364
466917,348,461,356
466918,343,463,350
466919,336,462,337
466920,330,463,327
466921,327,458,327
466922,334,459,336
466923,341,460,345
466924,352,461,359
466925,359,461,368
466926,366,461,375
466927,370,462,384
466928,376,459,391
466929,388,461,404
466930,392,463,412
466931,396,462,414
466932,386,462,405
466933,379,460,395
466934,370,460,383
466935,363,460,373
466936,356,462,364
466937,350,463,357
466938,346,462,351
466939,335,461,337
466940,329,460,329
466941,328,461,328
466942,335,463,336
466943,341,460,347
466944,351,461,359
466945,359,461,369
466946,365,462,375
466947,372,462,383
466948,376,463,390
466949,387,461,404
466950,394,462,413
466951,395,464,413
466952,388,462,405
466953,380,464,395
466954,369,460,383
466955,361,465,372
466956,357,463,365
466957,350,459,358
466958,346,462,350
466959,335,464,337
466960,330,463,329
466961,329,463,329
466962,337,463,338
466963,344,461,350
466964,354,464,359
466965,361,461,370
466966,366,463,375
466967,373,464,385
466968,379,464,393
466969,389,463,407
466970,396,466,415
466971,399,466,415
466972,390,466,406
466973,382,467,397
466974,372,465,385
466975,366,466,374
466976,358,467,366
466977,353,465,360
466978,348,464,352
466979,338,465,339
466980,331,462,330
466981,330,464,329
466982,337,461,338
466983,344,463,349
466984,356,464,361
466985,362,464,372
466986,368,465,380
466987,374,466,388
466988,381,466,395
466989,389,465,407
466990,398,466,416
466991,398,465,418
466992,392,467,408
466993,383,468,398
466994,373,465,385
466995,366,466,376
466996,361,466,369
466997,352,467,360
466998,349,467,353
466999,338,466,338
467000,332,467,331
467001,330,467,332
467002,338,468,341
467003,345,463,351
467004,355,467,363
467005,362,467,372
467006,369,463,379
467007,374,468,389
467008,381,468,395
467009,390,467,408
467010,399,464,418
467011,399,468,419
467012,393,468,408
467013,385,469,398
467014,373,467,386
467015,368,466,374
467016,361,467,370
467017,353,468,359
467018,350,469,355
467019,339,468,340
467020,332,467,332
467021,330,466,332
467022,339,468,342
467023,345,470,350
467024,356,467,363
467025,364,466,374
467026,369,468,381
467027,374,468,389
467028,381,465,396
467029,391,471,410
467030,399,470,419
467031,399,466,419
467032,393,469,409
467033,385,469,399
467034,376,467,386
467035,366,468,377
467036,360,469,370
467037,355,468,361
467038,350,468,353
467039,338,468,342
467040,332,468,333
467041,332,467,332
467042,338,468,342
467043,346,468,351
467044,355,469,364
467045,363,465,374
467046,369,468,382
467047,376,467,391
467048,380,468,396
467049,391,468,410
467050,399,469,419
467051,400,467,418
467052,392,469,409
467053,383,468,399
467054,374,469,386
467055,366,468,378
467056,361,471,369
467057,354,469,361
467058,349,470,354
467059,338,470,341
467060,332,464,333
467061,332,467,332
467062,339,467,341
467063,347,468,352
467064,357,465,364
467065,364,469,374
467066,369,469,381
467067,376,468,390
467068,382,469,396
467069,393,470,410
467070,399,469,417
467071,399,470,419
467072,393,471,411
467073,387,468,400
467074,376,471,387
467075,367,465,377
467076,363,467,370
467077,355,468,362
467078,352,471,356
467079,341,471,342
467080,335,471,333
467081,334,467,334
467082,341,468,342
467083,348,468,354
467084,358,470,366
467085,364,471,375
467086,370,470,384
467087,377,470,392
467088,383,469,397
467089,395,470,412
467090,401,470,422
467091,399,467,421
467092,396,473,410
467093,387,471,399
467094,375,470,387
467095,367,468,377
467096,362,470,371
467097,355,469,362
467098,350,469,356
467099,342,470,343
467100,334,465,333
467101,333,468,333
467102,339,468,344
467103,347,467,353
467104,356,466,364
467105,365,467,376
467106,370,467,381
467107,376,466,389
467108,382,467,396
467109,392,468,410
467110,397,465,418
467111,398,468,420
467112,392,464,409
467113,383,469,398
467114,373,465,385
467115,365,467,375
467116,361,468,369
467117,353,467,361
467118,350,466,353
467119,339,468,339
467120,332,466,332
467121,331,464,332
467122,337,465,340
467123,346,467,351
467124,356,466,364
467125,363,467,372
467126,369,466,380
467127,375,465,388
467128,379,463,394
467129,391,464,408
467130,396,461,418
467131,398,470,416
467132,391,465,405
467133,381,464,395
467134,371,465,384
467135,364,466,374
467136,358,464,366
467137,351,463,356
467138,346,462,350
467139,335,462,339
467140,329,464,327
467141,329,463,328
467142,337,463,339
467143,343,462,350
467144,353,462,361
467145,364,463,371
467146,367,461,377
467147,371,465,386
467148,379,465,393
467149,389,461,406
467150,395,461,414
467151,396,464,415
467152,390,463,406
467153,382,464,395
467154,372,463,384
467155,363,463,374
467156,359,465,367
467157,352,461,360
467158,348,465,352
467159,336,467,338
467160,329,465,329
467161,330,463,331
467162,338,463,340
467163,344,464,349
467164,354,462,361
467165,360,463,370
467166,366,463,380
467167,375,462,387
467168,379,463,394
467169,389,460,405
467170,397,462,414
467171,396,463,415
467172,388,463,406
467173,380,462,394
467174,369,459,383
467175,361,461,374
467176,357,463,365
467177,350,462,355
467178,346,462,349
467179,335,463,338
467180,328,461,328
467181,328,461,329
467182,334,461,338
467183,345,461,349
467184,354,461,361
467185,361,460,370
467186,367,460,378
467187,373,461,385
467188,378,460,394
467189,389,460,408
467190,395,462,413
467191,394,459,413
467192,388,463,405
467193,379,463,393
467194,371,464,381
467195,362,462,372
467196,356,462,363
467197,351,462,355
467198,344,459,348
467199,335,462,336
467200,329,459,328
467201,328,461,328
467202,335,457,337
467203,344,462,348
467204,353,458,360
467205,360,459,368
467206,366,459,377
467207,372,460,384
467208,377,461,393
467209,387,460,405
467210,393,460,413
467211,395,462,413
467212,387,461,403
467213,379,463,393
467214,368,461,380
467215,361,461,370
467216,356,460,364
467217,349,461,356
467218,344,461,348
467219,334,461,336
467220,328,459,330
467221,329,462,330
467222,333,462,338
467223,344,459,348
467224,352,459,359
467225,359,461,369
467226,365,461,375
467227,371,462,386
467228,378,459,394
467229,387,459,405
467230,394,454,416
467231,393,461,414
467232,386,462,403
467233,379,460,392
467234,368,462,380
467235,361,460,371
467236,354,462,363
467237,350,461,356
467238,343,460,346
467239,334,459,334
467240,326,459,326
467241,326,459,328
467242,335,459,336
467243,343,459,346
467244,352,458,360
467245,360,457,369
467246,365,461,377
467247,372,460,384
467248,378,460,394
467249,387,459,405
467250,394,459,413
467251,392,459,412
467252,386,461,404
467253,377,459,393
467254,367,460,380
467255,360,459,369
467256,355,459,361
467257,348,459,353
467258,343,457,346
467259,332,458,333
467260,324,457,326
467261,327,459,327
467262,333,454,337
467263,342,458,346
467264,352,457,358
467265,358,457,369
467266,364,457,376
467267,372,457,384
467268,375,458,391
467269,385,456,404
467270,391,457,413
467271,390,457,410
467272,385,458,401
467273,376,456,390
467274,366,459,377
467275,357,458,367
467276,352,458,361
467277,345,454,352
467278,340,457,344
467279,330,456,330
467280,324,458,322
467281,324,456,324
467282,332,456,335
467283,340,455,346
467284,350,456,357
467285,358,455,365
467286,361,456,374
467287,369,455,380
467288,374,455,391
467289,381,457,402
467290,391,455,408
467291,390,453,409
467292,383,457,399
467293,373,456,389
467294,367,458,376
467295,356,457,368
467296,351,452,358
467297,344,456,350
467298,340,456,344
467299,330,454,330
467300,323,454,321
467301,324,453,323
467302,331,454,335
467303,337,454,343
467304,347,454,355
467305,355,454,364
467306,359,454,373
467307,367,453,379
467308,373,451,387
467309,381,454,400
467310,389,453,407
467311,387,455,405
467312,380,454,397
467313,372,454,386
467314,362,450,374
467315,353,453,364
467316,348,452,357
467317,342,452,350
467318,337,449,340
467319,329,453,329
467320,321,452,322
467321,321,449,322
467322,329,451,331
467323,336,451,341
467324,346,451,354
467325,354,450,363
467326,359,445,370
467327,365,451,377
467328,370,452,385
467329,379,449,396
467330,388,450,406
467331,386,448,404
467332,379,451,395
467333,370,444,384
467334,360,450,371
467335,352,453,362
467336,348,450,355
467337,342,452,347
467338,336,447,337
467339,326,449,326
467340,320,448,319
467341,320,445,322
467342,329,448,330
467343,336,451,340
467344,343,447,351
467345,352,449,360
467346,356,449,369
467347,364,452,377
467348,371,449,384
467349,379,449,396
467350,386,449,406
467351,385,451,405
467352,379,450,395
467353,371,450,383
467354,360,448,373
467355,352,451,360
467356,346,450,354
467357,342,449,346
467358,334,450,338
467359,325,449,326
467360,320,451,319
467361,320,448,321
467362,326,446,330
467363,334,448,341
467364,343,449,351
467365,353,450,362
467366,359,450,368
467367,363,449,376
467368,370,449,386
467369,378,450,396
467370,386,450,406
467371,384,450,402
467372,377,452,394
467373,370,450,382
467374,360,450,372
467375,351,450,363
467376,346,449,355
467377,340,450,349
467378,333,451,337
467379,325,448,327
467380,319,449,320
467381,321,447,322
467382,328,447,331
467383,337,449,341
467384,346,449,352
467385,354,450,363
467386,358,447,370
467387,364,451,377
467388,370,449,385
467389,380,448,398
467390,387,452,407
467391,386,452,404
467392,379,451,394
467393,369,450,384
467394,361,452,371
467395,353,450,362
467396,347,447,353
467397,340,450,347
467398,335,450,339
467399,326,452,327
467400,317,448,319
467401,321,449,321
467402,327,445,330
467403,337,446,342
467404,346,451,353
467405,353,449,364
467406,358,449,371
467407,365,449,377
467408,372,448,387
467409,379,450,396
467410,387,450,405
467411,385,448,403
467412,380,452,394
467413,370,450,383
467414,359,450,372
467415,352,451,362
467416,346,451,356
467417,342,446,347
467418,334,449,337
467419,326,448,326
467420,320,449,318
467421,320,448,321
467422,328,445,329
467423,336,448,341
467424,346,445,351
467425,351,448,361
467426,357,447,370
467427,364,448,376
467428,370,448,386
467429,378,446,395
467430,385,449,405
467431,384,449,403
467432,379,447,394
467433,369,449,382
467434,360,451,370
467435,352,449,361
467436,347,450,353
467437,341,449,347
467438,335,452,338
467439,326,449,326
467440,320,451,321
467441,319,451,321
467442,328,451,331
467443,338,450,343
467444,347,448,353
467445,353,450,364
467446,358,450,371
467447,365,446,378
467448,371,451,388
467449,382,452,399
467450,387,451,406
467451,387,448,405
467452,379,453,396
467453,369,453,384
467454,360,453,372
467455,354,450,364
467456,348,451,357
467457,343,453,348
467458,336,452,340
467459,328,453,329
467460,320,452,320
467461,322,451,323
467462,329,452,332
467463,339,454,342
467464,347,453,355
467465,355,451,364
467466,360,451,371
467467,366,453,378
467468,375,453,389
467469,382,453,402
467470,389,455,407
467471,388,453,406
467472,380,454,397
467473,372,452,386
467474,362,455,375
467475,354,454,366
467476,351,455,357
467477,345,453,350
467478,337,454,341
467479,329,453,330
467480,324,455,323
467481,323,453,325
467482,331,454,335
467483,339,455,346
467484,349,455,355
467485,356,453,366
467486,362,456,374
467487,368,452,381
467488,375,455,390
467489,384,455,403
467490,389,454,407
467491,389,453,407
467492,382,457,400
467493,373,457,384
467494,363,456,374
467495,356,454,365
467496,351,457,358
467497,345,456,351
467498,340,457,342
467499,330,456,332
467500,323,457,325
467501,326,456,326
467502,331,458,336
467503,339,457,348
467504,348,457,359
467505,358,457,368
467506,363,457,376
467507,369,455,383
467508,376,456,392
467509,386,459,401
467510,391,456,411
467511,389,459,409
467512,385,459,399
467513,375,459,387
467514,367,456,375
467515,358,460,368
467516,352,456,359
467517,347,459,352
467518,341,459,344
467519,330,457,333
467520,326,459,326
467521,327,457,327
467522,333,460,337
467523,342,459,348
467524,352,458,357
467525,360,458,369
467526,366,457,376
467527,371,460,384
467528,378,459,395
467529,388,456,406
467530,394,461,414
467531,392,459,410
467532,384,460,402
467533,375,461,389
467534,366,460,379
467535,360,459,368
467536,354,459,361
467537,346,460,353
467538,342,461,345
467539,332,461,334
467540,326,456,327
467541,328,461,329
467542,334,459,336
467543,344,461,349
467544,353,461,360
467545,359,458,370
467546,367,460,378
467547,373,459,385
467548,380,458,394
467549,387,460,406
467550,391,462,412
467551,393,461,411
467552,386,462,403
467553,375,460,389
467554,364,461,379
467555,361,460,369
467556,353,461,362
467557,349,462,355
467558,342,460,344
467559,333,461,334
467560,326,461,327
467561,329,461,329
467562,336,460,339
467563,345,460,351
467564,354,461,361
467565,360,460,372
467566,367,461,380
467567,372,461,386
467568,379,457,397
467569,388,461,407
467570,394,461,416
467571,393,461,412
467572,387,461,402
467573,376,463,391
467574,368,463,379
467575,361,465,370
467576,355,463,363
467577,350,463,355
467578,343,462,346
467579,334,463,336
467580,327,462,325
467581,329,463,331
467582,336,462,339
467583,346,460,351
467584,356,464,363
467585,363,463,373
467586,369,463,380
467587,372,463,388
467588,382,465,397
467589,390,465,408
467590,397,464,414
467591,394,464,412
467592,388,465,405
467593,378,465,394
467594,369,465,382
467595,363,465,373
467596,356,464,365
467597,352,465,358
467598,344,465,347
467599,335,464,335
467600,330,466,330
467601,331,463,332
467602,337,463,342
467603,348,462,353
467604,356,465,363
467605,363,463,374
467606,368,465,381
467607,375,465,388
467608,382,465,399
467609,391,466,410
467610,398,466,417
467611,395,467,413
467612,388,466,406
467613,379,466,393
467614,371,467,383
467615,363,464,373
467616,357,466,365
467617,352,466,357
467618,344,466,348
467619,337,465,336
467620,331,467,330
467621,332,466,334
467622,339,467,343
467623,349,465,356
467624,357,465,365
467625,364,466,375
467626,370,465,384
467627,375,466,390
467628,385,467,399
467629,392,467,411
467630,397,469,418
467631,396,468,415
467632,389,468,407
467633,380,466,393
467634,373,469,383
467635,365,468,374
467636,358,468,366
467637,353,466,359
467638,345,467,350
467639,336,466,339
467640,332,468,332
467641,333,467,333
467642,340,467,343
467643,350,466,355
467644,359,468,368
467645,365,468,376
467646,372,469,385
467647,377,468,392
467648,385,468,403
467649,394,470,413
467650,399,468,420
467651,397,470,416
467652,391,469,407
467653,382,470,395
467654,372,470,384
467655,366,468,375
467656,358,468,366
467657,355,471,358
467658,346,467,348
467659,337,469,340
467660,334,467,332
467661,334,469,336
467662,343,470,345
467663,350,469,357
467664,358,471,368
467665,366,467,378
467666,374,467,385
467667,379,468,391
467668,388,469,405
467669,394,471,412
467670,400,470,421
467671,399,468,417
467672,392,467,408
467673,382,469,396
467674,373,470,386
467675,365,470,373
467676,361,471,368
467677,353,468,361
467678,347,470,350
467679,339,470,340
467680,332,469,334
467681,335,468,337
467682,342,469,345
467683,350,467,356
467684,360,468,368
467685,369,466,377
467686,373,468,386
467687,378,470,393
467688,386,469,405
467689,395,472,413
467690,401,471,421
467691,397,468,419
467692,392,470,409
467693,382,470,395
467694,373,469,385
467695,366,471,376
467696,362,470,368
467697,355,472,361
467698,347,466,349
467699,340,471,340
467700,334,470,333
467701,336,471,336
467702,343,469,345
467703,350,468,358
467704,360,469,369
467705,367,469,378
467706,374,468,386
467707,379,468,394
467708,387,470,403
467709,393,469,414
467710,400,471,420
467711,397,469,418
467712,392,470,408
467713,383,471,395
467714,374,470,385
467715,366,472,376
467716,360,470,369
467717,355,470,362
467718,345,470,349
467719,338,470,339
467720,334,468,334
467721,335,468,337
467722,343,470,347
467723,352,470,359
467724,360,467,369
467725,367,468,377
467726,374,469,386
467727,379,469,393
467728,388,468,405
467729,395,470,414
467730,400,470,421
467731,397,472,417
467732,391,472,408
467733,382,473,395
467734,375,471,384
467735,361,471,369
467736,355,471,361
467737,352,469,353
467738,343,471,345
467739,337,469,338
467740,335,469,336
467741,340,472,344
467742,347,470,350
467743,355,469,362
467744,361,469,370
467745,370,470,380
467746,374,470,387
467747,379,469,394
467748,387,470,404
467749,396,469,414
467750,402,469,421
467751,399,471,416
467752,391,469,407
467753,382,471,395
467754,374,469,385
467755,366,468,376
467756,360,470,366
467757,356,469,359
467758,347,470,348
467759,340,471,339
467760,334,471,332
467761,335,470,336
467762,342,470,346
467763,352,469,359
467764,360,468,369
467765,367,470,379
467766,375,469,388
467767,380,469,392
467768,387,468,405
467769,396,470,413
467770,400,471,420
467771,398,471,417
467772,390,468,409
467773,380,469,396
467774,372,470,385
467775,366,469,376
467776,359,469,367
467777,355,470,360
467778,346,469,350
467779,337,470,339
467780,331,468,332
467781,335,467,337
467782,342,467,345
467783,352,469,358
467784,360,468,368
467785,368,469,378
467786,373,468,386
467787,378,469,393
467788,387,468,403
467789,395,469,411
467790,400,467,419
467791,399,468,417
467792,389,470,409
467793,380,469,394
467794,372,469,384
467795,364,469,375
467796,358,469,366
467797,354,469,359
467798,345,466,348
467799,337,464,339
467800,333,467,332
467801,335,468,336
467802,341,469,344
467803,352,469,359
467804,360,466,369
467805,366,468,378
467806,373,468,384
467807,377,468,391
467808,386,468,403
467809,395,467,412
467810,399,468,421
467811,397,469,416
467812,390,467,406
467813,379,468,393
467814,372,470,384
467815,364,468,373
467816,358,467,364
467817,352,468,359
467818,346,466,347
467819,337,466,338
467820,331,466,331
467821,335,466,337
467822,343,469,345
467823,351,465,356
467824,358,466,367
467825,367,468,377
467826,373,467,384
467827,378,468,390
467828,386,467,402
467829,394,468,413
467830,400,467,419
467831,396,470,415
467832,389,468,405
467833,379,468,394
467834,371,467,383
467835,364,466,372
467836,358,468,363
467837,353,467,358
467838,344,468,346
467839,336,469,338
467840,331,468,330
467841,335,470,335
467842,342,466,346
467843,351,467,356
467844,359,466,367
467845,365,467,377
467846,374,468,386
467847,380,467,391
467848,388,469,403
467849,396,468,414
467850,397,469,419
467851,397,467,415
467852,390,469,405
467853,380,469,394
467854,372,469,384
467855,366,465,373
467856,358,470,366
467857,352,468,360
467858,345,470,349
467859,339,470,339
467860,333,469,332
467861,334,467,337
467862,342,466,346
467863,351,466,359
467864,358,468,366
467865,366,467,376
467866,373,468,385
467867,377,465,392
467868,388,467,403
467869,393,466,413
467870,397,466,418
467871,395,466,414
467872,389,467,406
467873,379,468,391
467874,370,467,380
467875,363,465,372
467876,357,466,364
467877,351,467,356
467878,342,466,345
467879,335,466,335
467880,330,465,330
467881,333,466,335
467882,340,465,344
467883,351,465,357
467884,358,464,366
467885,365,466,375
467886,374,467,385
467887,376,466,390
467888,384,465,400
467889,394,466,412
467890,398,467,419
467891,395,470,414
467892,389,467,405
467893,378,467,391
467894,371,468,381
467895,364,467,371
467896,355,466,362
467897,353,466,358
467898,344,466,346
467899,336,465,338
467900,331,465,331
467901,332,466,336
467902,340,465,343
467903,352,466,357
467904,360,467,366
467905,366,467,376
467906,372,470,385
467907,378,468,391
467908,387,469,404
467909,394,470,414
467910,397,469,420
467911,396,469,416
467912,390,470,407
467913,380,470,393
467914,371,469,383
467915,364,468,373
467916,357,467,366
467917,352,469,360
467918,344,468,347
467919,337,467,337
467920,330,466,330
467921,334,469,335
467922,341,464,344
467923,351,466,357
467924,357,464,367
467925,366,464,376
467926,372,468,385
467927,376,466,391
467928,383,465,403
467929,392,465,412
467930,398,466,418
467931,394,465,412
467932,388,466,404
467933,376,465,390
467934,369,465,381
467935,362,465,371
467936,355,461,362
467937,351,463,356
467938,341,464,345
467939,334,463,335
467940,329,466,331
467941,333,461,333
467942,340,463,344
467943,349,463,356
467944,358,464,365
467945,364,461,375
467946,371,464,383
467947,376,466,389
467948,385,463,402
467949,392,465,409
467950,398,466,418
467951,394,466,412
467952,387,464,403
467953,377,467,389
467954,369,466,379
467955,362,465,370
467956,356,464,363
467957,351,465,357
467958,342,468,346
467959,334,464,335
467960,330,464,330
467961,333,463,333
467962,339,464,343
467963,349,464,355
467964,357,462,366
467965,364,463,375
467966,371,462,384
467967,376,463,389
467968,384,463,402
467969,393,462,411
467970,398,465,417
467971,394,465,412
467972,388,467,403
467973,377,466,390
467974,367,467,380
467975,362,464,372
467976,355,467,362
467977,350,463,355
467978,344,464,344
467979,335,466,334
467980,329,464,329
467981,332,464,335
467982,339,465,345
467983,349,464,357
467984,358,465,367
467985,365,466,375
467986,372,465,384
467987,377,466,391
467988,386,467,404
467989,393,466,414
467990,399,467,418
467991,395,468,415
467992,388,467,405
467993,380,468,390
467994,371,467,381
467995,363,467,372
467996,356,467,363
467997,351,465,356
467998,343,468,345
467999,335,467,335
468000,332,465,331
468001,334,463,335
468002,341,467,344
468003,350,465,357
468004,360,467,368
468005,365,463,376
468006,374,463,384
468007,378,465,392
468008,387,466,405
468009,395,467,413
468010,400,467,418
468011,395,469,413
468012,387,469,405
468013,379,467,390
468014,370,467,382
468015,363,467,373
468016,356,466,364
468017,352,465,358
468018,344,468,347
468019,336,469,337
468020,331,465,332
468021,335,468,338
468022,343,466,346
468023,353,467,358
468024,359,465,369
468025,367,468,377
468026,373,470,385
468027,378,467,392
468028,388,469,405
468029,395,466,413
468030,399,467,420
468031,396,463,413
468032,390,465,406
468033,379,469,391
468034,369,467,382
468035,363,468,372
468036,357,468,364
468037,352,467,358
468038,343,468,345
468039,335,464,337
468040,332,464,331
468041,334,467,336
468042,341,474,346
468043,353,467,357
468044,358,465,368
468045,366,466,376
468046,372,468,384
468047,376,466,393
468048,387,466,405
468049,395,466,413
468050,400,468,420
468051,395,466,415
468052,389,469,406
468053,378,468,392
468054,369,468,381
468055,362,467,374
468056,355,467,363
468057,351,465,358
468058,342,465,344
468059,334,465,337
468060,332,468,331
468061,333,464,337
468062,341,463,345
468063,351,467,357
468064,358,466,366
468065,366,465,377
468066,373,463,384
468067,376,465,388
468068,385,464,404
468069,393,465,411
468070,398,464,417
468071,393,465,411
468072,387,466,403
468073,376,464,389
468074,369,464,379
468075,361,466,368
468076,355,467,362
468077,349,465,357
468078,342,466,343
468079,335,467,336
468080,329,465,329
468081,334,465,335
468082,341,467,344
468083,350,465,359
468084,359,465,368
468085,367,466,377
468086,372,467,385
468087,377,464,390
468088,386,464,403
468089,394,463,412
468090,398,464,418
468091,392,464,409
468092,386,465,402
468093,375,465,387
468094,366,464,379
468095,361,466,369
468096,353,464,361
468097,348,464,355
468098,341,461,343
468099,332,465,333
468100,330,464,329
468101,332,463,334
468102,340,465,343
468103,352,464,357
468104,357,462,368
468105,365,465,375
468106,372,465,386
468107,377,463,390
468108,386,466,403
468109,394,465,412
468110,398,466,416
468111,393,465,410
468112,388,465,404
468113,375,464,388
468114,368,464,378
468115,361,465,370
468116,355,464,361
468117,350,464,355
468118,340,463,343
468119,332,462,333
468120,329,464,326
468121,334,462,335
468122,339,462,342
468123,349,460,355
468124,358,462,365
468125,363,464,375
468126,371,462,382
468127,374,464,390
468128,385,466,402
468129,392,464,413
468130,396,466,418
468131,394,463,411
468132,386,466,403
468133,376,466,389
468134,368,465,378
468135,362,465,370
468136,355,466,361
468137,349,465,355
468138,339,464,343
468139,335,463,333
468140,328,463,329
468141,333,464,334
468142,340,462,343
468143,349,462,357
468144,355,463,365
468145,365,461,374
468146,369,462,383
468147,373,461,387
468148,383,462,401
468149,392,462,411
468150,394,462,415
468151,391,462,408
468152,386,460,401
468153,375,462,386
468154,367,462,376
468155,360,460,369
468156,352,461,359
468157,349,460,353
468158,338,462,341
468159,331,459,332
468160,328,462,328
468161,332,461,334
468162,338,461,341
468163,348,459,356
468164,356,461,365
468165,363,459,375
468166,370,462,382
468167,373,459,389
468168,385,462,401
468169,391,461,411
468170,396,462,415
468171,391,462,409
468172,386,462,401
468173,373,462,386
468174,367,463,377
468175,358,462,369
468176,352,463,359
468177,349,462,353
468178,338,462,341
468179,332,462,331
468180,327,459,325
468181,332,461,334
468182,339,463,344
468183,348,459,356
468184,357,463,365
468185,363,462,374
468186,371,463,382
468187,376,462,389
468188,385,462,402
468189,393,462,412
468190,396,463,414
468191,392,463,409
468192,385,461,402
468193,374,463,387
468194,366,461,377
468195,359,464,369
468196,353,463,360
468197,347,462,355
468198,338,463,340
468199,331,462,333
468200,328,462,327
468201,334,462,333
468202,340,463,343
468203,349,459,356
468204,358,461,365
468205,365,465,374
468206,371,463,382
468207,376,463,389
468208,385,464,401
468209,392,463,411
468210,397,464,416
468211,392,466,409
468212,385,464,400
468213,372,463,386
468214,367,463,377
468215,360,464,367
468216,351,463,360
468217,349,466,353
468218,338,463,341
468219,331,459,331
468220,329,461,327
468221,333,463,336
468222,340,461,343
468223,351,463,355
468224,357,463,366
468225,363,464,374
468226,371,464,384
468227,374,463,389
468228,386,462,401
468229,392,462,411
468230,397,462,416
468231,390,462,409
468232,384,464,402
468233,374,463,387
468234,365,460,376
468235,360,464,369
468236,353,465,359
468237,348,461,355
468238,339,464,341
468239,331,463,334
468240,330,464,329
468241,334,463,335
468242,340,464,343
468243,351,462,355
468244,359,462,367
468245,365,464,375
468246,371,462,383
468247,377,463,391
468248,387,465,403
468249,394,461,412
468250,397,463,416
468251,393,463,411
468252,384,465,401
468253,374,466,387
468254,366,465,378
468255,362,466,371
468256,355,465,361
468257,348,463,354
468258,340,465,342
468259,331,464,334
468260,328,463,328
468261,333,465,335
468262,340,462,345
468263,351,458,359
468264,357,464,368
468265,366,463,375
468266,373,463,385
468267,377,466,391
468268,387,465,405
468269,394,466,412
468270,397,466,417
468271,392,463,412
468272,386,466,401
468273,376,464,388
468274,367,466,378
468275,361,465,369
468276,353,466,361
468277,349,464,355
468278,340,463,343
468279,333,465,334
468280,329,467,330
468281,334,465,337
468282,342,465,347
468283,354,466,359
468284,359,465,369
468285,365,465,376
468286,374,465,385
468287,378,468,392
468288,388,466,405
468289,395,467,414
468290,398,467,419
468291,395,467,411
468292,387,465,401
468293,375,467,387
468294,369,467,379
468295,362,467,370
468296,353,468,360
468297,349,465,355
468298,342,464,343
468299,333,465,334
468300,330,462,329
468301,336,466,337
468302,343,465,345
468303,353,467,359
468304,360,467,370
468305,368,467,378
468306,374,465,386
468307,376,466,392
468308,388,467,404
468309,395,467,416
468310,399,467,420
468311,394,468,411
468312,386,469,404
468313,377,467,389
468314,370,467,380
468315,364,470,372
468316,355,466,363
468317,351,469,355
468318,342,464,343
468319,335,468,335
468320,330,468,331
468321,335,464,338
468322,342,466,347
468323,354,465,360
468324,360,467,371
468325,367,466,378
468326,374,465,385
468327,377,468,393
468328,387,468,406
468329,396,465,413
468330,400,466,420
468331,394,468,413
468332,387,467,404
468333,376,467,389
468334,369,469,378
468335,363,467,371
468336,355,467,361
468337,350,467,357
468338,340,466,342
468339,334,466,336
468340,332,464,329
468341,336,463,337
468342,342,468,346
468343,353,466,361
468344,359,467,367
468345,368,467,377
468346,375,467,387
468347,380,469,393
468348,388,468,406
468349,396,464,416
468350,400,467,418
468351,395,468,411
468352,388,466,403
468353,376,468,389
468354,369,469,381
468355,364,468,371
468356,358,467,363
468357,352,469,357
468358,342,467,344
468359,335,466,335
468360,333,468,330
468361,337,466,338
468362,341,467,348
468363,354,465,361
468364,360,468,368
468365,368,466,377
468366,375,467,389
468367,380,469,393
468368,390,468,407
468369,396,467,415
468370,400,468,420
468371,394,467,410
468372,388,464,401
468373,376,470,387
468374,367,467,378
468375,364,467,370
468376,355,467,362
468377,350,466,357
468378,341,463,343
468379,334,469,333
468380,331,466,331
468381,335,466,338
468382,343,465,346
468383,353,465,359
468384,361,466,370
468385,366,466,376
468386,373,467,387
468387,378,465,391
468388,389,466,405
468389,393,466,415
468390,397,464,418
468391,394,468,411
468392,386,465,403
468393,375,465,388
468394,366,467,379
468395,361,464,369
468396,354,465,361
468397,349,465,356
468398,341,465,342
468399,334,465,333
468400,330,467,330
468401,334,466,337
468402,341,464,347
468403,353,466,360
468404,361,464,369
468405,367,463,378
468406,372,464,384
468407,378,466,392
468408,388,461,406
468409,395,463,415
468410,398,466,417
468411,393,466,410
468412,386,467,401
468413,374,466,387
468414,367,465,376
468415,360,466,370
468416,353,463,360
468417,349,465,355
468418,339,464,342
468419,332,465,334
468420,329,463,329
468421,335,463,338
468422,342,465,345
468423,352,464,359
468424,360,465,368
468425,366,464,377
468426,374,464,388
468427,377,463,391
468428,389,464,406
468429,395,462,414
468430,400,464,419
468431,393,465,410
468432,386,464,401
468433,374,465,386
468434,368,465,376
468435,360,465,369
468436,352,467,360
468437,349,465,353
468438,340,465,341
468439,332,465,333
468440,330,465,329
468441,335,464,335
468442,342,464,346
468443,351,464,360
468444,359,464,371
468445,366,463,376
468446,371,464,385
468447,378,464,391
468448,388,466,407
468449,394,462,414
468450,398,463,417
468451,391,463,410
468452,386,462,400
468453,374,463,387
468454,367,464,376
468455,360,464,367
468456,353,464,359
468457,349,465,352
468458,338,465,341
468459,332,465,331
468460,330,464,329
468461,335,461,337
468462,341,464,345
468463,354,464,359
468464,359,463,369
468465,364,464,376
468466,372,463,385
468467,377,465,389
468468,388,467,405
468469,395,464,414
468470,396,465,415
468471,390,461,408
468472,384,466,399
468473,371,464,385
468474,365,464,377
468475,360,463,369
468476,352,464,359
468477,348,463,353
468478,338,463,338
468479,331,463,331
468480,329,463,327
468481,331,462,336
468482,340,461,343
468483,351,461,358
468484,358,463,368
468485,363,462,376
468486,370,463,384
468487,376,463,392
468488,386,464,403
468489,393,461,413
468490,397,463,417
468491,388,463,407
468492,383,462,397
468493,372,463,384
468494,365,462,375
468495,359,463,366
468496,351,462,359
468497,347,463,352
468498,337,462,338
468499,331,462,330
468500,327,460,328
468501,334,461,334
468502,339,464,345
468503,351,461,357
468504,357,462,366
468505,364,461,375
468506,370,453,383
468507,376,462,389
468508,386,458,404
468509,391,461,412
468510,396,462,415
468511,389,462,407
468512,384,461,399
468513,371,464,385
468514,365,463,375
468515,357,462,366
468516,352,457,358
468517,346,460,352
468518,337,461,339
468519,329,464,329
468520,327,461,328
468521,333,461,334
468522,340,460,344
468523,352,461,356
468524,359,460,367
468525,365,460,374
468526,372,460,383
468527,375,460,390
468528,386,458,401
468529,391,461,413
468530,395,461,413
468531,390,463,407
468532,381,460,397
468533,370,460,383
468534,363,460,374
468535,356,461,366
468536,350,455,357
468537,345,463,352
468538,335,461,338
468539,329,461,330
468540,327,460,327
468541,333,462,334
468542,340,463,344
468543,351,463,358
468544,357,464,368
468545,364,462,375
468546,371,463,385
468547,377,460,392
468548,387,462,405
468549,395,462,413
468550,396,461,416
468551,390,462,408
468552,382,461,397
468553,370,463,383
468554,363,459,374
468555,358,457,366
468556,351,461,356
468557,344,459,352
468558,335,459,338
468559,328,460,327
468560,326,460,327
468561,331,457,335
468562,340,459,342
468563,350,459,357
468564,355,458,365
468565,361,458,371
468566,370,460,382
468567,374,457,388
468568,385,460,402
468569,392,459,411
468570,394,459,412
468571,389,459,404
468572,382,461,396
468573,371,459,383
468574,364,460,372
468575,357,460,365
468576,350,460,356
468577,345,456,350
468578,335,458,337
468579,329,459,329
468580,325,462,326
468581,331,458,333
468582,339,459,344
468583,349,457,356
468584,358,457,368
468585,362,459,371
468586,370,457,382
468587,374,459,387
468588,385,459,401
468589,392,458,412
468590,394,459,414
468591,387,461,405
468592,381,462,396
468593,369,461,383
468594,363,460,373
468595,356,460,366
468596,348,460,356
468597,344,462,350
468598,334,461,337
468599,328,459,328
468600,325,459,325
468601,331,461,335
468602,340,459,343
468603,349,459,358
468604,357,461,366
468605,364,459,373
468606,369,459,383
468607,374,459,388
468608,384,455,402
468609,391,459,411
468610,393,458,412
468611,387,461,405
468612,380,461,396
468613,370,456,381
468614,362,460,372
468615,356,457,365
468616,349,458,355
468617,343,459,350
468618,334,461,337
468619,329,460,327
468620,325,461,326
468621,333,460,333
468622,338,460,343
468623,350,458,357
468624,357,459,368
468625,362,460,373
468626,369,459,381
468627,375,459,388
468628,385,459,402
468629,393,460,411
468630,394,457,413
468631,388,462,404
468632,380,459,394
468633,370,458,380
468634,360,459,372
468635,356,459,365
468636,350,458,356
468637,344,458,348
468638,335,460,337
468639,328,456,328
468640,326,458,325
468641,331,456,334
468642,337,460,344
468643,349,458,357
468644,356,456,364
468645,363,459,372
468646,370,458,382
468647,374,460,390
468648,385,459,402
468649,393,460,411
468650,393,459,414
468651,388,459,405
468652,380,460,395
468653,370,461,380
468654,361,460,372
468655,355,459,365
468656,350,460,355
468657,343,457,350
468658,334,456,335
468659,325,460,327
468660,326,455,325
468661,331,459,333
468662,338,458,344
468663,349,455,355
468664,356,458,365
468665,362,458,374
468666,371,456,382
468667,374,459,390
468668,383,457,402
468669,391,459,411
468670,393,459,411
468671,388,459,404
468672,382,463,394
468673,370,459,382
468674,362,461,371
468675,354,461,364
468676,350,456,354
468677,345,458,348
468678,334,459,336
468679,329,457,327
468680,326,456,325
468681,333,458,335
468682,338,457,343
468683,349,455,356
468684,356,458,365
468685,363,458,372
468686,369,459,381
468687,374,458,388
468688,384,458,402
468689,391,459,412
468690,393,459,412
468691,385,457,404
468692,378,459,394
468693,368,459,379
468694,362,458,369
468695,354,459,363
468696,348,456,354
468697,343,458,348
468698,334,458,335
468699,327,456,328
468700,324,460,324
468701,332,459,333
468702,339,457,343
468703,349,459,356
468704,356,456,365
468705,362,456,372
468706,368,456,381
468707,372,456,387
468708,384,456,401
468709,390,457,410
468710,392,459,412
468711,386,455,403
468712,377,460,393
468713,368,459,381
468714,359,460,369
468715,355,458,362
468716,349,458,353
468717,344,455,347
468718,331,456,334
468719,324,455,325
468720,323,456,323
468721,330,456,331
468722,339,457,342
468723,347,456,355
468724,354,457,364
468725,361,452,370
468726,368,455,381
468727,372,456,386
468728,384,456,400
468729,391,456,410
468730,391,457,410
468731,386,454,402
468732,378,456,392
468733,367,455,378
468734,356,455,369
468735,354,458,360
468736,346,455,352
468737,342,456,345
468738,332,455,333
468739,325,454,324
468740,322,455,323
468741,330,453,331
468742,335,454,341
468743,346,452,355
468744,353,456,363
468745,359,454,370
468746,366,454,379
468747,370,455,385
468748,381,453,402
468749,388,456,409
468750,390,454,410
468751,383,455,402
468752,376,456,392
468753,365,456,378
468754,359,455,367
468755,352,455,361
468756,345,455,352
468757,340,456,346
468758,329,454,333
468759,324,455,324
468760,324,454,323
468761,329,455,330
468762,336,454,340
468763,346,453,354
468764,355,454,363
468765,359,454,370
468766,368,454,377
468767,371,454,385
468768,381,454,398
468769,387,455,408
468770,390,456,411
468771,385,456,401
468772,377,453,391
468773,365,453,378
468774,359,455,368
468775,352,453,360
468776,345,454,351
468777,341,455,346
468778,329,454,332
468779,322,453,323
468780,321,455,321
468781,330,453,328
468782,336,454,339
468783,347,453,355
468784,355,452,363
468785,359,455,371
468786,366,452,379
468787,371,453,384
468788,381,454,397
468789,389,455,408
468790,390,454,409
468791,383,454,400
468792,376,454,390
468793,365,455,377
468794,357,456,368
468795,352,453,361
468796,346,454,351
468797,341,456,345
468798,330,454,332
468799,323,455,324
468800,322,454,322
468801,329,454,331
468802,336,453,340
468803,347,454,354
468804,354,455,363
468805,361,455,371
468806,367,455,379
468807,373,455,386
468808,382,454,399
468809,389,454,409
468810,392,456,411
468811,384,454,400
468812,376,455,390
468813,366,454,378
468814,357,455,367
468815,353,453,360
468816,346,457,352
468817,341,454,346
468818,330,454,332
468819,324,455,323
468820,322,453,321
468821,329,452,331
468822,336,452,340
468823,345,456,354
468824,355,451,364
468825,360,453,371
468826,366,456,381
468827,372,457,385
468828,382,455,399
468829,389,456,408
468830,390,451,409
468831,384,455,402
468832,377,455,390
468833,365,457,377
468834,359,454,368
468835,353,455,360
468836,345,456,351
468837,340,455,345
468838,330,455,332
468839,323,456,323
468840,324,451,324
468841,330,454,332
468842,336,456,339
468843,345,455,353
468844,355,457,364
468845,360,455,370
468846,366,455,380
468847,372,455,386
468848,383,456,399
468849,389,454,408
468850,390,456,410
468851,384,456,401
468852,375,457,391
468853,366,456,377
468854,358,455,367
468855,352,457,361
468856,344,455,353
468857,339,456,344
468858,332,457,333
468859,322,455,322
468860,322,452,323
468861,329,452,330
468862,337,454,341
468863,348,455,356
468864,355,455,365
468865,359,456,372
468866,366,455,380
468867,372,455,386
468868,383,455,401
468869,389,455,409
468870,391,456,411
468871,386,455,401
468872,378,456,392
468873,366,458,380
468874,358,458,369
468875,354,458,361
468876,346,457,354
468877,342,455,346
468878,331,457,333
468879,325,457,323
468880,325,456,324
468881,331,454,332
468882,338,455,344
468883,348,457,355
468884,355,455,363
468885,361,456,371
468886,367,453,379
468887,373,454,388
468888,384,455,399
468889,391,456,409
468890,391,455,409
468891,383,455,402
468892,376,457,392
468893,366,457,378
468894,356,457,368
468895,353,456,361
468896,346,456,351
468897,341,456,345
468898,331,455,333
468899,323,454,323
468900,323,455,323
468901,332,454,333
468902,339,455,343
468903,347,455,355
468904,356,453,365
468905,360,454,371
468906,367,455,379
468907,372,455,387
468908,382,456,402
468909,390,451,410
468910,389,456,408
468911,383,456,400
468912,376,454,390
468913,366,456,378
468914,358,457,366
468915,352,453,361
468916,346,455,350
468917,341,453,345
468918,331,457,331
468919,324,454,324
468920,322,454,322
468921,328,455,332
468922,336,454,342
468923,347,455,354
468924,355,454,364
468925,361,454,372
468926,367,453,379
468927,373,454,385
468928,383,456,399
468929,389,454,409
468930,390,454,409
468931,383,454,399
468932,376,456,391
468933,365,455,376
468934,356,455,368
468935,351,454,361
468936,345,455,351
468937,339,454,344
468938,328,453,330
468939,322,453,322
468940,323,454,323
468941,330,453,331
468942,338,454,342
468943,348,456,354
468944,355,454,365
468945,359,453,371
468946,366,451,380
468947,370,453,386
468948,382,453,399
468949,389,454,408
468950,390,455,408
468951,382,454,401
468952,374,453,389
468953,366,455,376
468954,357,455,366
468955,351,454,360
468956,343,453,350
468957,339,453,341
468958,329,452,331
468959,323,449,322
468960,322,454,321
468961,329,453,330
468962,336,453,342
468963,347,453,354
468964,355,453,365
468965,360,451,370
468966,367,453,379
468967,372,454,386
468968,381,452,400
468969,388,455,408
468970,388,454,408
468971,384,453,398
468972,374,453,387
468973,363,454,376
468974,356,453,367
468975,350,453,360
468976,344,453,351
468977,339,454,343
468978,329,453,332
468979,323,453,322
468980,323,454,322
468981,329,453,332
468982,337,451,342
468983,347,453,354
468984,354,452,364
468985,361,452,370
468986,367,452,378
468987,371,454,384
468988,381,453,397
468989,389,452,407
468990,388,452,406
468991,382,454,399
468992,371,451,389
468993,364,453,374
468994,357,455,365
468995,350,454,358
468996,343,454,350
468997,340,451,344
468998,329,453,330
468999,321,451,322
469000,322,454,321
469001,330,452,332
469002,337,449,342
469003,345,453,354
469004,354,452,363
469005,358,451,370
469006,366,451,379
469007,371,455,386
469008,382,455,401
469009,388,454,408
469010,390,454,407
469011,381,454,398
469012,375,454,389
469013,364,455,376
469014,358,454,366
469015,350,451,358
469016,342,451,348
469017,339,454,343
469018,330,450,331
469019,323,450,322
469020,322,453,323
469021,328,451,332
469022,335,451,342
469023,347,451,353
469024,354,452,363
469025,360,451,370
469026,367,450,379
469027,372,451,385
469028,382,452,397
469029,389,452,408
469030,388,454,407
469031,382,454,397
469032,374,454,388
469033,363,451,374
469034,356,451,365
469035,351,452,359
469036,344,451,351
469037,337,451,342
469038,328,454,329
469039,322,452,321
469040,321,452,322
469041,328,454,330
469042,337,454,341
469043,346,453,355
469044,353,453,362
469045,359,454,371
469046,366,452,379
469047,371,451,387
469048,382,452,398
469049,388,454,408
469050,387,455,408
469051,381,452,399
469052,374,453,388
469053,364,454,375
469054,356,454,366
469055,351,454,359
469056,344,454,350
469057,340,453,342
469058,329,455,329
469059,322,455,322
469060,321,455,323
469061,329,455,332
469062,338,452,344
469063,346,455,356
469064,353,454,365
469065,359,452,373
469066,366,452,379
469067,373,455,389
469068,382,455,399
469069,388,454,409
469070,389,454,406
469071,382,456,398
469072,373,454,388
469073,363,456,376
469074,354,455,365
469075,351,455,357
469076,344,456,350
469077,340,454,343
469078,329,455,331
469079,322,452,323
469080,323,452,323
469081,330,453,332
469082,338,454,344
469083,348,452,357
469084,356,454,366
469085,360,453,371
469086,368,453,381
469087,373,454,387
469088,383,456,399
469089,389,456,411
469090,390,456,409
469091,383,453,399
469092,375,454,389
469093,364,456,377
469094,356,456,367
469095,352,455,358
469096,344,454,352
469097,341,455,344
469098,329,455,332
469099,323,452,323
469100,324,456,325
469101,331,455,333
469102,339,456,343
469103,349,454,356
469104,357,453,365
469105,363,454,373
469106,368,455,380
469107,374,457,389
469108,383,455,402
469109,389,457,410
469110,391,454,409
469111,383,456,400
469112,374,458,388
469113,366,457,379
469114,358,455,368
469115,353,455,361
469116,345,456,351
469117,340,457,346
469118,330,454,331
469119,322,458,321
469120,324,455,325
469121,331,452,335
469122,339,453,344
469123,347,456,356
469124,356,456,366
469125,362,454,374
469126,369,453,382
469127,376,453,390
469128,385,457,403
469129,391,456,412
469130,392,454,410
469131,382,458,399
469132,375,455,390
469133,366,459,377
469134,357,458,368
469135,353,458,360
469136,347,458,351
469137,339,457,346
469138,331,458,332
469139,326,457,323
469140,325,456,326
469141,331,456,334
469142,341,456,346
469143,349,457,356
469144,357,457,365
469145,362,456,375
469146,369,454,381
469147,376,458,391
469148,385,458,402
469149,391,458,411
469150,391,456,409
469151,384,458,401
469152,376,458,389
469153,367,457,377
469154,358,458,367
469155,353,456,361
469156,347,458,353
469157,341,457,344
469158,331,457,333
469159,326,458,325
469160,324,457,326
469161,331,459,334
469162,340,459,346
469163,349,459,358
469164,358,456,368
469165,364,456,374
469166,371,459,383
469167,375,457,391
469168,384,455,403
469169,391,457,411
469170,392,459,410
469171,386,458,401
469172,378,458,391
469173,367,457,380
469174,359,457,368
469175,354,458,361
469176,347,459,353
469177,342,458,345
469178,332,455,332
469179,325,457,323
469180,324,458,326
469181,332,462,335
469182,340,459,347
469183,351,458,357
469184,358,458,367
469185,364,457,374
469186,370,456,384
469187,375,457,391
469188,385,458,403
469189,392,458,412
469190,392,458,411
469191,384,459,402
469192,375,459,391
469193,366,458,376
469194,358,459,369
469195,354,458,361
469196,347,457,352
469197,341,458,344
469198,332,455,332
469199,327,458,324
469200,326,457,326
469201,333,459,334
469202,342,457,346
469203,349,458,356
469204,357,459,366
469205,364,457,374
469206,371,459,382
469207,376,457,391
469208,385,458,403
469209,393,459,412
469210,391,459,410
469211,383,459,401
469212,378,457,390
469213,367,457,379
469214,359,460,370
469215,352,459,361
469216,348,457,354
469217,341,458,347
469218,332,456,334
469219,326,459,325
469220,326,459,327
469221,334,457,335
469222,343,458,346
469223,350,456,359
469224,359,460,370
469225,366,459,375
469226,372,458,384
469227,377,458,392
469228,387,459,405
469229,392,458,413
469230,392,462,412
469231,386,461,403
469232,376,462,390
469233,366,461,378
469234,359,460,370
469235,354,460,361
469236,347,462,353
469237,342,460,345
469238,333,459,334
469239,325,460,326
469240,326,459,327
469241,333,459,335
469242,341,459,347
469243,352,456,359
469244,359,457,369
469245,365,458,376
469246,369,459,385
469247,376,459,393
469248,386,459,404
469249,392,460,411
469250,391,461,410
469251,383,461,402
469252,377,461,390
469253,368,459,380
469254,360,458,368
469255,354,460,361
469256,347,462,354
469257,342,460,346
469258,334,460,334
469259,327,459,327
469260,327,459,328
469261,334,458,335
469262,342,459,347
469263,352,457,359
469264,358,457,369
469265,365,459,375
469266,372,459,384
469267,377,459,394
469268,387,459,405
469269,393,460,414
469270,391,461,410
469271,385,459,403
469272,377,460,391
469273,367,459,379
469274,360,461,369
469275,355,460,361
469276,349,460,354
469277,342,458,344
469278,332,459,334
469279,327,459,326
469280,327,461,328
469281,335,458,337
469282,344,459,347
469283,353,461,359
469284,359,457,370
469285,366,460,378
469286,372,460,384
469287,378,460,394
469288,388,460,405
469289,393,460,413
469290,392,459,412
469291,386,462,402
469292,378,461,391
469293,366,460,379
469294,362,462,370
469295,355,460,361
469296,348,460,355
469297,340,459,344
469298,334,460,335
469299,326,459,327
469300,328,459,329
469301,335,461,338
469302,343,460,349
469303,353,460,361
469304,361,463,371
469305,366,460,378
469306,371,461,384
469307,377,460,395
469308,387,461,404
469309,394,461,412
469310,393,460,411
469311,385,460,402
469312,377,459,390
469313,369,461,380
469314,360,459,369
469315,355,462,362
469316,350,463,353
469317,340,459,344
469318,332,461,334
469319,327,460,326
469320,328,461,329
469321,335,459,338
469322,344,461,348
469323,351,458,360
469324,361,459,369
469325,366,460,376
469326,371,461,384
469327,379,461,394
469328,387,459,404
469329,394,460,414
469330,392,460,409
469331,386,461,402
469332,377,460,389
469333,367,461,377
469334,360,459,370
469335,356,458,361
469336,348,459,354
469337,341,460,345
469338,332,462,336
469339,326,459,327
469340,327,460,329
469341,336,461,339
469342,344,459,349
469343,353,460,361
469344,360,458,370
469345,366,459,377
469346,373,458,386
469347,378,459,395
469348,388,461,406
469349,394,460,414
469350,393,462,411
469351,386,462,401
469352,376,459,390
469353,369,461,379
469354,360,460,368
469355,355,462,361
469356,348,459,354
469357,342,460,344
469358,333,459,335
469359,328,460,327
469360,328,460,329
469361,334,459,337
469362,342,458,349
469363,352,457,360
469364,360,459,369
469365,365,460,377
469366,371,460,383
469367,377,461,394
469368,386,460,405
469369,395,460,412
469370,393,460,411
469371,386,461,401
469372,376,461,390
469373,367,460,379
469374,359,460,370
469375,354,461,361
469376,348,464,354
469377,341,460,344
469378,333,460,333
469379,327,461,327
469380,328,460,328
469381,335,458,339
469382,345,462,351
469383,352,460,361
469384,359,461,371
469385,365,460,379
469386,372,461,385
469387,378,459,394
469388,391,459,406
469389,395,459,413
469390,392,458,411
469391,386,460,402
469392,376,459,388
469393,367,457,379
469394,360,460,368
469395,354,462,361
469396,348,459,353
469397,341,461,343
469398,333,460,334
469399,327,460,325
469400,329,458,328
469401,335,457,338
469402,343,457,348
469403,354,456,359
469404,359,460,370
469405,365,460,377
469406,372,461,385
469407,379,462,395
469408,388,459,406
469409,394,459,411
469410,392,460,411
469411,384,461,399
469412,375,460,390
469413,367,460,378
469414,360,460,369
469415,354,459,360
469416,347,461,353
469417,341,460,346
469418,332,460,335
469419,327,459,328
469420,327,459,328
469421,336,459,338
469422,344,459,349
469423,352,460,361
469424,360,458,371
469425,367,459,378
469426,372,460,385
469427,380,459,394
469428,388,462,406
469429,392,461,414
469430,391,462,410
469431,385,462,402
469432,376,462,389
469433,367,461,379
469434,359,461,369
469435,355,460,360
469436,348,459,355
469437,342,462,343
469438,334,456,333
469439,327,460,326
469440,327,461,329
469441,333,459,338
469442,345,460,349
469443,353,459,361
469444,361,460,369
469445,366,460,378
469446,372,460,385
469447,380,460,396
469448,387,460,404
469449,395,461,411
469450,393,460,409
469451,386,461,401
469452,375,462,390
469453,367,462,379
469454,359,461,369
469455,354,460,361
469456,347,459,355
469457,340,461,344
469458,332,459,334
469459,326,460,325
469460,327,458,328
469461,335,460,338
469462,344,458,350
469463,352,460,361
469464,359,459,370
469465,366,460,378
469466,373,461,386
469467,380,460,396
469468,389,463,406
469469,395,462,414
469470,393,463,412
469471,386,463,402
469472,379,464,392
469473,369,464,381
469474,362,461,371
469475,355,464,363
469476,350,465,356
469477,344,463,346
469478,334,462,334
469479,328,464,328
469480,330,461,331
469481,337,459,339
469482,345,460,351
469483,354,460,363
469484,361,458,371
469485,368,460,379
469486,372,458,384
469487,380,460,395
469488,390,460,407
469489,394,461,415
469490,392,458,410
469491,385,459,402
469492,375,462,390
469493,367,461,379
469494,358,459,370
469495,353,459,360
469496,348,460,353
469497,340,460,343
469498,331,458,332
469499,327,459,325
469500,328,459,329
469501,335,458,340
469502,344,459,350
469503,353,458,360
469504,361,455,370
469505,367,461,376
469506,372,456,384
469507,380,457,395
469508,388,460,405
469509,393,460,412
469510,392,462,409
469511,384,459,400
469512,373,458,389
469513,366,460,378
469514,359,460,367
469515,351,459,359
469516,347,459,352
469517,340,458,342
469518,330,458,332
469519,325,458,324
469520,326,458,327
469521,333,458,337
469522,343,457,348
469523,351,460,359
469524,360,455,369
469525,366,458,378
469526,371,458,384
469527,380,458,394
469528,388,459,403
469529,393,459,411
469530,390,460,409
469531,384,459,400
469532,374,459,388
469533,365,458,376
469534,357,459,366
469535,350,458,359
469536,346,459,352
469537,337,458,342
469538,330,459,331
469539,326,459,324
469540,327,454,328
469541,334,459,337
469542,344,458,348
469543,352,457,360
469544,359,458,368
469545,364,459,376
469546,371,458,382
469547,380,456,395
469548,387,458,404
469549,392,462,412
469550,390,460,409
469551,382,459,400
469552,374,459,387
469553,366,459,377
469554,358,458,367
469555,350,458,359
469556,346,457,351
469557,339,458,340
469558,331,456,331
469559,325,459,324
469560,328,456,328
469561,334,458,338
469562,343,454,350
469563,352,456,359
469564,360,458,370
469565,365,458,377
469566,372,456,384
469567,379,456,395
469568,386,459,404
469569,393,458,412
469570,390,460,408
469571,384,458,398
469572,374,458,387
469573,364,458,376
469574,358,456,366
469575,352,456,357
469576,345,458,352
469577,337,458,341
469578,330,457,331
469579,324,458,325
469580,325,457,328
469581,333,456,337
469582,343,456,349
469583,352,457,360
469584,358,454,369
469585,364,456,377
469586,370,458,383
469587,378,457,394
469588,387,455,405
469589,393,455,412
469590,391,457,407
469591,383,459,398
469592,373,456,386
469593,365,459,376
469594,356,458,367
469595,350,458,357
469596,346,456,351
469597,338,457,341
469598,330,456,329
469599,325,457,323
469600,326,455,327
469601,334,459,336
469602,344,457,349
469603,350,456,359
469604,358,455,368
469605,367,457,378
469606,370,455,383
469607,378,456,394
469608,386,456,405
469609,393,456,412
469610,390,458,408
469611,383,458,399
469612,375,457,385
469613,364,456,376
469614,357,457,366
469615,351,457,357
469616,345,457,351
469617,337,458,341
469618,329,453,330
469619,325,456,323
469620,327,453,328
469621,332,455,335
469622,342,457,349
469623,351,457,359
469624,358,456,368
469625,366,456,376
469626,370,455,383
469627,378,453,395
469628,386,457,404
469629,392,457,411
469630,389,456,406
469631,382,459,398
469632,372,457,387
469633,364,459,375
469634,356,455,365
469635,349,457,357
469636,345,457,351
469637,336,456,339
469638,326,456,329
469639,322,456,323
469640,326,457,328
469641,333,455,335
469642,342,456,349
469643,352,456,359
469644,358,457,369
469645,363,457,376
469646,369,456,383
469647,377,453,393
469648,387,457,404
469649,392,456,412
469650,388,457,408
469651,383,456,399
469652,372,457,385
469653,364,459,374
469654,358,456,366
469655,352,457,358
469656,345,456,351
469657,337,456,340
469658,330,456,329
469659,325,456,324
469660,327,456,328
469661,332,457,336
469662,343,455,349
469663,352,456,360
469664,359,457,368
469665,365,456,378
469666,369,454,382
469667,378,456,394
469668,386,455,405
469669,389,455,410
469670,389,457,406
469671,382,456,397
469672,372,455,384
469673,364,454,373
469674,355,458,363
469675,351,457,356
469676,344,456,350
469677,335,456,339
469678,329,457,330
469679,324,456,324
469680,325,456,325
469681,331,457,335
469682,342,456,349
469683,350,455,358
469684,357,456,367
469685,364,455,376
469686,369,457,383
469687,377,456,395
469688,384,455,405
469689,392,457,411
469690,388,457,407
469691,382,457,398
469692,371,453,384
469693,362,456,373
469694,356,456,367
469695,350,457,355
469696,344,457,349
469697,335,457,338
469698,327,455,328
469699,323,456,323
469700,326,455,326
469701,332,454,335
469702,343,457,349
469703,351,454,359
469704,358,454,367
469705,364,455,377
469706,368,454,382
469707,377,454,393
469708,386,456,404
469709,391,456,411
469710,388,455,406
469711,380,456,397
469712,370,456,384
469713,363,453,374
469714,355,453,364
469715,348,455,356
469716,344,455,350
469717,335,455,338
469718,327,456,328
469719,322,454,322
469720,326,452,327
469721,333,454,335
469722,341,451,347
469723,349,451,359
469724,357,455,368
469725,364,455,376
469726,369,456,381
469727,378,454,395
469728,385,454,405
469729,390,455,411
469730,387,456,406
469731,381,455,396
469732,370,455,382
469733,364,453,372
469734,355,455,365
469735,348,455,355
469736,344,454,349
469737,336,456,338
469738,327,454,328
469739,322,455,322
469740,324,454,326
469741,333,453,335
469742,342,452,349
469743,350,450,357
469744,357,453,367
469745,364,454,376
469746,369,454,380
469747,377,453,392
469748,385,455,403
469749,389,455,410
469750,388,455,405
469751,379,456,397
469752,370,454,382
469753,362,454,373
469754,356,456,364
469755,347,454,354
469756,343,453,349
469757,334,454,336
469758,326,455,328
469759,321,451,321
469760,326,455,326
469761,332,453,336
469762,343,454,347
469763,352,453,358
469764,357,449,367
469765,364,454,376
469766,367,455,383
469767,378,455,396
469768,385,455,403
469769,389,456,410
469770,387,454,404
469771,380,454,394
469772,370,452,382
469773,361,454,374
469774,355,454,362
469775,348,455,355
469776,344,455,349
469777,336,455,336
469778,327,453,328
469779,322,454,321
469780,325,454,327
469781,332,455,336
469782,342,453,349
469783,351,450,358
469784,357,452,367
469785,363,455,375
469786,367,454,381
469787,377,453,394
469788,385,454,405
469789,389,454,408
469790,386,456,404
469791,379,455,397
469792,369,455,383
469793,361,456,371
469794,353,453,363
469795,348,455,354
469796,343,455,349
469797,335,455,336
469798,328,454,329
469799,323,454,320
469800,325,453,326
469801,332,453,335
469802,344,453,349
1742069923409,NEW REP,,
469803,351,455,358
469804,358,453,367
469805,364,453,377
469806,367,454,380
469807,378,455,394
469808,385,455,404
469809,389,454,409
469810,388,454,405
469811,380,456,395
469812,369,455,382
469813,362,457,372
469814,355,456,363
469815,349,456,356
469816,343,456,348
469817,335,455,337
469818,326,453,328
469819,322,454,322
469820,325,454,327
469821,333,450,336
469822,343,454,349
469823,352,455,358
469824,358,453,367
469825,365,455,376
469826,369,456,382
469827,380,455,395
469828,385,455,405
469829,390,454,410
469830,387,454,405
469831,381,457,397
469832,370,454,382
469833,362,454,373
469834,354,456,364
469835,349,456,357
469836,344,457,349
469837,335,453,339
469838,327,458,329
469839,323,454,322
469840,327,455,330
469841,335,457,337
469842,344,455,349
469843,351,453,359
469844,358,456,369
469845,365,453,377
469846,369,452,383
469847,380,455,396
469848,386,458,406
469849,391,457,411
469850,388,455,404
469851,381,456,396
469852,369,455,382
469853,362,457,373
469854,354,457,365
469855,348,455,355
469856,343,457,348
469857,336,455,337
469858,327,455,329
469859,324,456,323
469860,326,454,329
469861,334,455,336
469862,344,455,350
469863,352,455,360
469864,359,456,368
469865,366,457,377
469866,369,457,382
469867,378,456,395
469868,386,456,406
469869,391,457,411
469870,389,458,405
469871,381,457,397
469872,371,457,384
469873,361,457,373
469874,356,455,364
469875,349,456,356
469876,344,457,350
469877,336,457,338
469878,327,456,330
469879,322,456,324
469880,328,455,329
469881,335,455,338
469882,345,457,351
469883,351,455,361
469884,359,454,369
469885,365,457,378
469886,370,458,384
469887,380,455,397
469888,387,458,405
469889,391,457,412
469890,387,457,405
469891,382,458,398
469892,370,459,382
469893,364,457,372
469894,355,458,365
469895,349,457,356
469896,344,457,349
469897,336,457,338
469898,328,458,329
469899,323,457,322
469900,327,457,329
469901,336,456,338
469902,344,455,351
469903,353,458,362
469904,359,458,370
469905,367,457,378
469906,371,455,385
469907,381,458,397
469908,389,454,408
469909,393,454,412
469910,389,459,406
469911,383,459,398
469912,371,458,385
469913,364,458,374
469914,359,458,366
469915,350,458,357
469916,346,458,351
469917,337,457,338
469918,328,457,329
469919,325,457,324
469920,327,457,329
469921,336,455,339
469922,345,457,354
469923,353,456,362
469924,360,457,369
469925,364,457,380
469926,369,458,384
469927,379,457,397
469928,387,456,406
469929,392,457,413
469930,390,459,406
469931,381,456,398
469932,371,456,384
469933,363,457,374
469934,356,459,366
469935,350,457,356
469936,346,458,350
469937,335,458,338
469938,328,458,327
469939,324,459,323
469940,329,457,330
469941,335,458,339
469942,344,458,352
469943,351,458,361
469944,359,458,370
469945,366,457,378
469946,370,457,385
469947,381,458,398
469948,387,458,408
469949,393,457,412
469950,388,459,407
469951,382,460,396
469952,370,457,385
469953,361,459,375
469954,356,457,365
469955,349,458,356
469956,344,458,351
469957,334,458,338
469958,328,460,330
469959,324,457,325
469960,327,458,329
469961,336,458,337
469962,346,458,351
469963,354,458,362
469964,359,458,372
469965,368,457,378
469966,374,458,385
469967,382,456,399
469968,389,458,408
469969,393,459,412
469970,390,459,407
469971,381,460,396
469972,369,459,383
469973,363,459,374
469974,355,459,366
469975,350,459,355
469976,344,461,350
469977,337,459,338
469978,329,458,329
469979,324,457,325
469980,329,456,332
469981,335,457,339
469982,346,456,353
469983,352,459,361
469984,360,458,371
469985,365,456,379
469986,371,458,386
469987,381,458,397
469988,389,458,408
469989,394,455,413
469990,388,458,407
469991,382,457,398
469992,371,456,383
469993,363,458,374
469994,358,459,365
469995,350,460,356
469996,346,460,351
469997,335,458,337
469998,329,457,329
469999,323,458,324
470000,329,459,332
470001,336,457,339
470002,347,458,351
470003,354,457,361
470004,362,457,370
470005,368,454,379
470006,374,458,385
470007,382,459,398
470008,390,457,408
470009,393,455,413
470010,389,461,406
470011,380,460,398
470012,370,459,382
470013,364,456,373
470014,357,458,363
470015,349,459,356
470016,344,457,352
470017,336,458,337
470018,328,459,329
470019,325,457,323
470020,329,457,330
470021,335,457,339
470022,346,457,353
470023,354,457,364
470024,360,459,371
470025,368,457,380
470026,372,457,383
470027,381,458,397
470028,388,459,407
470029,394,460,412
470030,389,458,407
470031,382,456,398
470032,370,460,383
470033,363,456,374
470034,357,457,365
470035,349,458,356
470036,345,458,349
470037,335,457,339
470038,328,458,329
470039,324,459,324
470040,329,459,330
470041,337,457,338
470042,347,458,352
470043,353,459,362
470044,361,459,372
470045,367,458,380
470046,372,456,386
470047,381,457,399
470048,390,460,407
470049,393,459,412
470050,391,458,407
470051,383,461,397
470052,371,459,382
470053,364,461,375
470054,358,458,364
470055,350,460,357
470056,347,458,350
470057,335,457,338
470058,330,461,329
470059,323,457,323
470060,327,457,330
470061,335,456,339
470062,345,457,353
470063,354,454,363
470064,361,457,372
470065,368,459,379
470066,372,455,385
470067,382,458,399
470068,389,457,407
470069,394,458,411
470070,387,458,406
470071,381,458,397
470072,371,459,383
470073,362,458,374
470074,356,459,365
470075,350,457,355
470076,344,459,350
470077,334,457,337
470078,328,459,328
470079,325,456,324
470080,328,459,330
470081,337,456,340
470082,345,458,353
470083,354,458,364
470084,360,456,371
470085,367,457,381
470086,372,459,386
470087,381,458,400
470088,389,458,408
470089,394,460,413
470090,389,459,407
470091,382,460,397
470092,371,459,383
470093,363,457,375
470094,357,459,366
470095,348,459,357
470096,346,460,351
470097,335,458,339
470098,329,459,330
470099,325,458,323
470100,331,458,331
470101,336,457,340
470102,346,456,352
470103,355,458,364
470104,361,459,371
470105,368,459,380
470106,374,460,386
470107,383,458,400
470108,389,458,407
470109,394,459,413
470110,389,461,406
470111,381,460,397
470112,370,461,383
470113,364,459,373
470114,357,459,366
470115,349,456,358
470116,345,458,350
470117,335,459,337
470118,329,459,328
470119,325,460,324
470120,329,458,331
470121,337,458,341
470122,347,458,355
470123,355,457,363
470124,361,457,371
470125,369,458,380
470126,373,459,388
470127,383,457,401
470128,390,459,409
470129,395,460,413
470130,390,459,407
470131,381,461,398
470132,371,459,384
470133,362,460,374
470134,358,460,366
470135,351,458,355
470136,344,460,350
470137,335,460,337
470138,328,458,328
470139,324,459,325
470140,329,459,332
470141,336,460,341
470142,346,459,354
470143,354,460,362
470144,360,458,372
470145,368,459,381
470146,373,460,388
470147,382,459,400
470148,388,460,410
470149,393,459,413
470150,387,460,407
470151,382,460,398
470152,371,459,383
470153,363,459,374
470154,356,459,366
470155,349,459,356
470156,343,460,351
470157,334,459,337
470158,329,459,329
470159,325,457,325
470160,329,459,331
470161,338,458,341
470162,347,458,354
470163,355,456,364
470164,360,459,373
470165,368,457,380
470166,373,459,387
470167,383,458,401
470168,392,458,410
470169,394,457,412
470170,388,460,406
470171,380,457,398
470172,371,459,383
470173,364,459,374
470174,357,460,366
470175,350,460,355
470176,345,460,350
470177,335,459,337
470178,328,465,328
470179,323,458,326
470180,331,457,333
470181,337,460,340
470182,348,458,355
470183,356,457,364
470184,361,458,372
470185,367,458,380
470186,371,459,387
470187,383,460,399
470188,390,457,410
470189,395,457,413
470190,389,461,406
470191,382,460,396
470192,369,458,383
470193,365,460,373
470194,357,455,364
470195,349,458,356
470196,346,459,351
470197,335,460,338
470198,329,459,327
470199,327,458,327
470200,331,458,332
470201,337,458,342
470202,348,459,354
470203,355,459,364
470204,361,458,372
470205,369,460,382
470206,373,459,388
470207,381,458,399
470208,388,459,409
470209,393,459,413
470210,388,459,406
470211,383,461,397
470212,371,460,381
470213,363,458,371
470214,355,457,364
470215,350,459,356
470216,346,459,349
470217,336,458,337
470218,327,461,329
470219,323,459,323
470220,331,458,331
470221,337,460,341
470222,347,452,354
470223,354,456,364
470224,361,458,372
470225,368,458,379
470226,372,458,387
470227,382,458,401
470228,389,457,410
470229,393,459,412
470230,387,459,405
470231,381,459,397
470232,371,459,382
470233,362,459,372
470234,356,458,363
470235,349,460,355
470236,343,458,350
470237,335,458,337
470238,328,459,327
470239,323,457,325
470240,330,459,333
470241,337,457,341
470242,346,458,354
470243,355,457,364
470244,361,459,372
470245,370,459,381
470246,374,459,386
470247,383,458,400
470248,392,458,410
470249,393,461,412
470250,388,460,405
470251,381,458,397
470252,370,458,382
470253,363,459,374
470254,355,459,364
470255,349,457,356
470256,345,459,351
470257,335,459,339
470258,328,460,327
470259,326,458,326
470260,330,459,333
470261,340,460,343
470262,349,456,356
470263,358,459,365
470264,362,458,373
470265,369,458,381
470266,372,458,389
470267,383,459,400
470268,391,460,410
470269,394,460,413
470270,388,459,406
470271,381,460,396
470272,371,460,383
470273,364,461,372
470274,357,458,366
470275,350,460,356
470276,347,457,350
470277,336,460,337
470278,329,458,327
470279,327,459,324
470280,331,461,332
470281,337,459,342
470282,349,459,354
470283,355,459,365
470284,360,460,369
470285,369,458,381
470286,374,460,385
470287,381,458,400
470288,390,461,411
470289,394,460,415
470290,388,460,405
470291,382,460,397
470292,370,458,383
470293,364,459,375
470294,357,463,365
470295,350,461,357
470296,346,460,350
470297,333,461,338
470298,329,460,330
470299,326,458,326
470300,330,457,334
470301,339,460,342
470302,348,459,357
470303,356,459,365
470304,364,462,374
470305,369,459,382
470306,375,459,391
470307,385,460,402
470308,392,459,411
470309,395,460,414
470310,389,462,406
470311,383,462,396
470312,372,462,383
470313,363,460,374
470314,357,462,366
470315,351,458,357
470316,346,462,350
470317,336,460,337
470318,329,460,329
470319,327,460,326
470320,332,460,334
470321,340,460,342
470322,351,462,358
470323,357,460,366
470324,364,461,373
470325,369,459,381
470326,375,462,388
470327,386,461,404
470328,393,462,412
470329,394,463,415
470330,390,462,408
470331,384,463,398
470332,372,462,384
470333,365,460,375
470334,358,462,367
470335,353,462,358
470336,347,462,353
470337,338,466,339
470338,331,463,330
470339,329,463,328
470340,334,464,336
470341,341,463,346
470342,352,462,358
470343,359,463,368
470344,365,463,376
470345,371,465,384
470346,378,463,391
470347,387,465,405
470348,395,464,416
470349,397,461,417
470350,391,462,408
470351,384,462,399
470352,373,463,386
470353,366,463,375
470354,360,463,368
470355,353,461,357
470356,348,462,352
470357,337,462,339
470358,330,461,331
470359,328,461,328
470360,333,461,337
470361,339,460,344
470362,352,460,360
470363,358,461,367
470364,364,461,373
470365,372,460,384
470366,376,461,390
470367,386,462,405
470368,393,464,413
470369,397,463,417
470370,391,463,408
470371,385,467,401
470372,372,462,385
470373,367,462,376
470374,360,470,368
470375,354,463,360
470376,348,463,354
470377,338,464,339
470378,329,464,330
470379,328,461,327
470380,336,460,336
470381,341,463,345
470382,352,461,358
470383,360,462,369
470384,365,464,376
470385,373,464,387
470386,378,461,391
470387,389,464,406
470388,395,465,414
470389,397,464,417
470390,393,461,409
470391,385,463,400
470392,374,463,386
470393,367,464,375
470394,359,463,367
470395,351,462,358
470396,347,461,351
470397,336,461,339
470398,328,460,330
470399,325,459,326
470400,331,465,334
470401,340,460,341
470402,349,456,355
470403,358,461,367
470404,364,458,374
470405,371,460,384
470406,376,463,389
470407,388,462,405
470408,394,465,415
470409,399,467,416
470410,393,468,408
470411,385,469,402
470412,375,468,387
470413,368,469,379
470414,363,469,372
470415,355,470,362
470416,351,468,357
470417,341,468,344
470418,334,466,333
470419,332,468,331
470420,338,467,338
470421,347,471,348
470422,357,471,365
470423,364,473,374
470424,372,472,382
470425,378,471,392
470426,384,474,398
470427,394,470,411
470428,403,473,421
470429,404,473,424
470430,396,477,414
470431,391,474,405
470432,380,471,393
470433,372,473,383
470434,367,476,375
470435,360,476,366
470436,355,474,361
470437,345,475,348
470438,338,474,339
470439,335,471,337
470440,342,473,344
470441,347,476,355
470442,360,474,367
470443,367,478,378
470444,375,477,385
470445,383,480,395
470446,388,480,402
470447,399,476,417
470448,405,479,426
470449,407,480,428
470450,402,476,420
470451,394,475,408
470452,380,474,394
470453,374,474,384
470454,367,471,375
470455,358,470,365
470456,353,470,359
470457,341,469,344
470458,336,467,335
470459,333,467,331
470460,337,465,339
470461,344,466,348
470462,353,463,360
470463,362,463,369
470464,367,462,376
470465,373,460,386
470466,378,460,391
470467,388,458,405
470468,394,461,413
470469,396,460,415
470470,389,461,406
470471,382,461,397
470472,370,461,383
470473,362,464,373
470474,357,464,365
470475,352,463,356
470476,348,466,352
470477,338,467,340
470478,332,462,330
470479,329,464,329
470480,334,461,336
470481,342,460,345
470482,352,458,357
470483,360,463,368
470484,364,466,377
470485,372,464,386
470486,379,466,394
470487,390,468,407
470488,396,467,417
470489,401,470,419
470490,396,472,413
470491,388,470,403
470492,377,470,390
470493,369,468,379
470494,363,469,372
470495,356,468,362
470496,352,467,358
470497,342,468,343
470498,336,468,335
470499,332,468,333
470500,339,469,341
470501,346,467,350
470502,356,465,362
470503,362,464,372
470504,367,465,378
470505,374,464,385
470506,378,461,392
470507,388,462,405
470508,394,462,415
470509,396,463,417
470510,391,465,408
470511,383,464,400
470512,372,464,385
470513,366,466,376
470514,359,466,367
470515,353,468,359
470516,348,466,354
470517,341,467,342
470518,334,471,334
470519,334,470,334
470520,340,473,343
470521,347,474,354
470522,359,472,367
470523,367,472,377
470524,372,469,383
470525,377,469,392
470526,382,467,396
470527,391,465,409
470528,397,468,417
470529,397,466,420
470530,392,467,411
470531,386,469,403
470532,376,471,389
470533,370,470,379
470534,364,468,371
470535,355,467,361
470536,350,461,354
470537,339,460,340
470538,329,460,329
470539,328,457,328
470540,333,460,336
470541,340,459,344
470542,350,460,356
470543,357,457,367
470544,362,460,374
470545,370,459,384
470546,376,462,389
470547,387,462,404
470548,393,463,412
470549,395,464,416
470550,389,464,407
470551,381,464,397
470552,369,463,384
470553,365,459,375
470554,359,465,368
470555,351,464,359
470556,347,466,352
470557,336,464,340
470558,331,464,332
470559,329,462,329
470560,335,460,337
470561,341,460,345
470562,353,461,359
470563,359,462,367
470564,366,465,375
470565,373,465,386
470566,380,466,392
470567,390,468,408
470568,398,470,418
470569,400,470,420
470570,394,470,412
470571,386,467,402
470572,374,467,387
470573,366,462,374
470574,359,463,369
470575,351,462,358
470576,347,461,353
470577,339,469,340
470578,335,470,335
470579,334,475,336
470580,342,476,344
470581,350,475,354
470582,361,473,367
470583,365,474,376
470584,369,470,382
470585,377,470,390
470586,382,471,398
470587,392,471,412
470588,400,469,422
470589,399,469,422
470590,393,466,412
470591,385,467,400
470592,374,464,387
470593,365,466,376
470594,359,463,369
470595,352,463,358
470596,348,463,354
470597,337,462,338
470598,331,464,330
470599,331,466,329
470600,335,465,339
470601,344,464,350
470602,353,463,361
470603,361,464,371
470604,366,464,377
470605,374,463,386
470606,379,463,392
470607,390,464,407
470608,396,467,417
470609,399,469,419
470610,394,473,412
470611,387,474,403
470612,377,470,389
470613,368,470,379
470614,363,468,372
470615,354,467,362
470616,350,462,354
470617,338,463,340
470618,332,462,331
470619,328,464,329
470620,336,464,338
470621,343,463,347
470622,353,466,362
470623,362,466,373
470624,366,460,378
470625,373,456,386
470626,379,464,393
470627,389,465,406
470628,397,463,415
470629,398,462,416
470630,392,468,409
470631,387,468,399
470632,375,468,386
470633,365,468,377
470634,360,469,370
470635,356,471,363
470636,352,475,358
470637,341,473,344
470638,335,470,336
470639,332,468,334
470640,340,466,341
470641,345,465,350
470642,355,460,359
470643,359,457,367
470644,364,457,374
470645,370,458,382
470646,375,457,389
470647,386,456,401
470648,391,458,410
470649,392,458,412
470650,385,462,403
470651,380,461,393
470652,370,464,382
470653,365,459,371
470654,358,466,366
470655,352,466,355
470656,346,466,352
470657,337,462,339
470658,330,464,329
470659,327,460,329
470660,337,466,339
470661,344,466,348
470662,355,463,361
470663,362,464,372
470664,367,464,377
470665,374,466,387
470666,379,460,394
470667,390,463,406
470668,395,461,416
470669,396,461,416
470670,389,462,407
470671,381,463,396
470672,371,464,384
470673,364,460,374
470674,357,462,366
470675,349,462,356
470676,347,462,349
470677,336,461,336
470678,329,456,327
470679,327,456,323
470680,331,452,333
470681,337,454,341
470682,347,452,354
470683,355,452,363
470684,360,454,370
470685,367,454,379
470686,371,455,386
470687,382,453,400
470688,390,453,408
470689,391,455,409
470690,383,453,399
470691,376,454,388
470692,364,453,376
470693,356,452,366
470694,352,452,358
470695,345,453,349
470696,340,455,344
470697,330,457,333
470698,324,455,323
470699,324,458,325
470700,333,463,335
470701,341,464,346
470702,352,463,359
470703,359,462,368
470704,365,461,376
470705,373,460,385
470706,377,460,391
470707,386,460,404
470708,393,459,412
470709,393,458,412
470710,387,460,405
470711,382,466,396
470712,372,468,385
470713,365,468,375
470714,360,467,368
470715,352,463,359
470716,345,460,352
470717,334,455,335
470718,327,454,328
470719,325,454,324
470720,332,453,332
470721,340,458,344
470722,350,463,359
470723,359,463,369
470724,365,464,377
470725,373,460,384
470726,377,461,391
470727,385,456,404
470728,390,454,411
470729,391,455,411
470730,385,456,401
470731,378,460,392
470732,366,461,380
470733,361,462,371
470734,355,462,364
470735,349,460,356
470736,343,457,348
470737,334,456,334
470738,325,454,324
470739,324,452,323
470740,330,452,332
470741,338,457,341
470742,349,459,356
470743,357,460,366
470744,363,460,374
470745,371,463,384
470746,378,464,393
470747,390,464,407
470748,396,463,414
470749,398,462,416
470750,389,459,405
470751,379,456,393
470752,367,453,378
470753,360,455,367
470754,352,455,361
470755,346,455,352
470756,341,456,345
470757,332,458,332
470758,326,459,325
470759,327,462,325
470760,335,463,336
470761,341,464,348
470762,354,466,362
470763,360,463,371
470764,366,462,378
470765,372,460,387
470766,377,457,391
470767,386,456,403
470768,392,459,411
470769,393,457,414
470770,385,457,405
470771,377,458,392
470772,367,457,379
470773,359,459,370
470774,355,461,363
470775,348,459,356
470776,347,467,351
470777,337,468,340
470778,331,466,331
470779,331,470,332
470780,338,469,343
470781,347,469,351
470782,358,467,365
470783,363,465,373
470784,368,463,379
470785,375,461,386
470786,379,461,392
470787,388,462,405
470788,393,459,412
470789,393,458,411
470790,387,457,403
470791,378,458,392
470792,368,459,381
470793,360,463,370
470794,355,460,364
470795,351,461,356
470796,344,464,349
470797,334,459,335
470798,328,455,326
470799,326,457,326
470800,332,457,335
470801,341,458,344
470802,350,457,358
470803,357,457,366
470804,363,454,372
470805,368,454,381
470806,371,453,386
470807,381,454,399
470808,389,452,408
470809,387,454,407
470810,382,453,399
470811,373,452,387
470812,363,454,375
470813,357,454,367
470814,352,458,361
470815,347,461,354
470816,343,462,349
470817,336,465,336
470818,330,467,330
470819,330,465,329
470820,337,464,340
470821,345,465,348
470822,353,461,361
470823,361,457,369
470824,364,455,374
470825,369,453,382
470826,371,451,387
470827,382,450,399
470828,388,447,406
470829,386,448,406
470830,380,449,395
470831,372,450,385
470832,361,449,372
470833,354,451,363
470834,348,452,356
470835,342,453,348
470836,337,453,343
470837,326,450,328
470838,319,449,318
470839,319,449,319
470840,324,450,328
470841,333,454,341
470842,348,455,355
470843,355,460,365
470844,361,458,374
470845,369,459,382
470846,374,457,388
470847,384,454,400
470848,388,452,408
470849,390,451,407
470850,381,451,395
470851,373,452,388
470852,364,457,376
470853,359,461,368
470854,356,468,363
470855,351,474,359
470856,349,476,356
470857,341,475,344
470858,334,474,335
470859,332,470,335
470860,340,465,343
470861,346,463,350
470862,355,463,362
470863,361,461,372
470864,367,463,379
470865,373,462,386
470866,379,463,393
470867,388,462,407
470868,395,460,415
470869,394,460,412
470870,388,459,403
470871,378,460,391
470872,368,458,378
470873,358,456,368
470874,352,455,360
470875,346,455,353
470876,339,452,345
470877,328,450,330
470878,323,451,322
470879,320,449,321
470880,327,450,329
470881,335,449,339
470882,345,447,352
470883,351,447,360
470884,357,448,367
470885,364,449,375
470886,369,450,382
470887,378,452,396
470888,386,454,407
470889,389,457,407
470890,383,459,401
470891,375,460,388
470892,367,462,379
470893,359,463,370
470894,355,464,364
470895,350,464,357
470896,344,464,347
470897,333,462,336
470898,327,460,327
470899,325,458,327
470900,332,456,334
470901,339,452,343
470902,347,450,353
470903,354,448,364
470904,359,448,369
470905,364,447,377
470906,369,449,383
470907,380,448,395
470908,387,451,406
470909,388,452,406
470910,382,456,395
470911,372,457,388
470912,365,458,377
470913,359,460,367
470914,353,461,361
470915,348,461,355
470916,343,461,349
470917,332,460,335
470918,325,457,326
470919,327,456,326
470920,333,455,334
470921,341,456,345
470922,349,454,355
470923,355,456,365
470924,360,453,372
470925,366,453,380
470926,373,455,390
470927,384,457,401
470928,392,461,410
470929,394,464,412
470930,388,464,406
470931,382,469,395
470932,372,468,383
470933,364,468,376
470934,359,466,367
470935,354,464,357
470936,348,461,351
470937,335,459,336
470938,326,458,327
470939,328,456,326
470940,333,457,336
470941,340,456,347
470942,350,458,359
470943,359,461,369
470944,364,462,375
470945,370,457,383
470946,374,455,389
470947,382,454,400
470948,389,450,409
470949,387,446,405
470950,380,450,396
470951,371,447,384
470952,360,448,370
470953,353,448,359
470954,347,449,353
470955,340,445,346
470956,336,451,338
470957,328,453,328
470958,320,452,320
470959,321,452,319
470960,330,452,331
470961,336,453,342
470962,347,450,353
470963,352,450,361
470964,359,449,368
470965,365,450,377
470966,370,446,384
470967,377,446,397
470968,385,447,403
470969,384,446,401
470970,377,444,393
470971,369,448,382
470972,358,446,370
470973,351,448,360
470974,347,445,352
470975,339,447,345
470976,335,447,339
470977,326,449,326
470978,319,450,318
470979,321,450,321
470980,329,448,331
470981,338,456,342
470982,348,455,356
470983,356,461,367
470984,364,461,375
470985,369,461,383
470986,378,461,393
470987,386,456,403
470988,395,459,414
470989,394,458,412
470990,387,457,401
470991,377,454,389
470992,366,455,378
470993,360,463,370
470994,356,466,364
470995,352,466,357
470996,346,467,350
470997,336,467,339
470998,330,464,330
470999,330,460,330
471000,335,459,337
471001,342,457,348
471002,351,456,357
471003,356,455,367
471004,363,453,373
471005,367,453,380
471006,373,452,388
471007,382,450,400
471008,389,451,408
471009,386,450,405
471010,379,452,397
471011,371,453,387
471012,363,456,375
471013,357,457,365
471014,353,460,361
471015,347,459,352
471016,342,459,347
471017,333,459,334
471018,327,462,328
471019,329,463,330
471020,337,466,340
471021,345,469,353
471022,356,468,365
471023,363,465,373
471024,367,464,381
471025,373,461,386
471026,379,461,395
471027,388,460,407
471028,393,463,415
471029,395,461,413
471030,386,464,403
471031,379,459,393
471032,370,460,380
471033,361,463,371
471034,357,465,365
471035,351,461,358
471036,347,467,351
471037,337,467,339
471038,332,465,330
471039,331,465,331
471040,340,465,340
471041,346,465,352
471042,357,463,363
471043,364,463,372
471044,367,461,379
471045,372,457,385
471046,375,455,391
471047,384,451,400
471048,389,451,409
471049,389,451,407
471050,382,452,397
471051,372,451,385
471052,364,454,376
471053,355,454,364
471054,351,453,357
471055,343,454,348
471056,339,455,342
471057,329,454,330
471058,323,454,323
471059,324,459,324
471060,333,460,335
471061,341,460,346
471062,351,462,359
471063,359,459,369
471064,364,458,376
471065,369,457,383
471066,374,455,391
471067,383,456,402
471068,392,457,411
471069,391,458,410
471070,385,456,402
471071,376,461,390
471072,369,465,379
471073,362,464,371
471074,357,469,366
471075,353,473,361
471076,349,473,353
471077,341,475,344
471078,335,476,338
471079,336,474,337
471080,342,470,346
471081,350,466,354
471082,357,459,365
471083,361,456,369
471084,365,451,374
471085,369,453,382
471086,373,449,390
471087,383,451,400
471088,387,451,409
471089,387,448,406
471090,378,448,395
471091,370,449,384
471092,359,449,371
471093,351,446,360
471094,346,449,353
471095,339,449,346
471096,332,447,336
471097,323,450,326
471098,319,452,319
471099,322,455,323
471100,331,457,334
471101,339,458,345
471102,350,457,357
471103,357,458,368
471104,363,456,375
471105,367,458,382
471106,374,450,390
471107,383,454,402
471108,390,454,408
471109,388,456,407
471110,380,456,397
471111,371,454,386
471112,363,456,376
471113,358,457,367
471114,353,459,361
471115,348,463,355
471116,344,467,347
471117,336,467,338
471118,331,468,331
471119,332,467,333
471120,340,463,342
471121,345,459,351
471122,353,457,362
471123,360,455,367
471124,362,451,374
471125,366,450,379
471126,373,451,389
471127,382,451,399
471128,387,452,405
471129,386,453,405
471130,381,458,395
471131,371,453,384
471132,363,454,375
471133,356,457,365
471134,351,457,359
471135,346,459,352
471136,340,456,342
471137,330,457,332
471138,324,455,324
471139,323,452,325
471140,331,453,332
471141,341,458,344
471142,350,462,358
471143,358,464,372
471144,365,461,378
471145,373,462,385
471146,380,459,395
471147,388,459,403
471148,393,459,414
471149,391,456,409
471150,384,454,400
471151,374,454,387
471152,364,453,374
471153,355,452,365
471154,350,449,355
471155,343,452,349
471156,337,452,341
471157,329,456,329
471158,322,454,321
471159,323,455,325
471160,331,451,334
471161,339,453,344
471162,348,455,356
471163,356,453,364
471164,362,453,373
471165,368,449,379
471166,374,454,389
471167,384,453,399
471168,388,453,407
471169,386,449,405
471170,378,448,394
471171,371,450,382
471172,360,451,372
471173,352,450,363
471174,347,448,354
471175,340,449,347
471176,334,449,337
471177,325,443,327
471178,319,446,318
471179,319,446,319
471180,326,445,328
471181,334,445,340
471182,343,444,349
471183,352,446,359
471184,354,446,367
471185,363,445,373
471186,369,445,384
471187,378,446,394
471188,382,448,400
471189,383,447,401
471190,376,448,393
471191,365,448,379
471192,358,450,370
471193,352,451,359
471194,348,454,355
471195,343,453,347
471196,336,452,338
471197,325,453,327
471198,320,452,320
471199,323,453,324
471200,328,454,333
471201,340,456,344
471202,349,456,357
471203,356,455,367
471204,362,454,375
471205,368,456,382
471206,375,452,391
471207,381,448,400
471208,388,447,406
471209,386,450,404
471210,378,447,395
471211,369,450,383
471212,358,451,371
471213,351,452,362
471214,347,453,355
471215,343,456,348
471216,338,453,340
471217,329,456,331
471218,324,453,323
471219,322,450,324
471220,329,449,332
471221,337,449,343
471222,345,449,353
471223,355,450,364
471224,360,453,370
471225,365,453,379
471226,372,454,389
471227,382,455,398
471228,388,455,408
471229,388,452,406
471230,379,451,395
471231,369,449,383
471232,359,447,370
471233,351,445,359
471234,345,446,353
471235,339,448,345
471236,332,446,334
471237,324,446,324
471238,318,443,317
471239,318,447,319
471240,325,448,329
471241,335,449,340
471242,343,447,351
471243,352,445,359
471244,356,444,368
471245,361,448,375
471246,368,445,384
471247,379,447,395
471248,383,450,403
471249,384,450,403
471250,376,453,393
471251,369,450,382
471252,362,451,372
471253,354,451,363
471254,345,450,355
471255,342,450,347
471256,335,450,338
471257,327,450,327
471258,320,452,319
471259,323,445,323
471260,328,451,332
471261,339,452,343
471262,347,452,354
471263,355,451,363
471264,360,452,371
471265,365,452,379
471266,373,451,389
471267,381,451,399
471268,386,451,407
471269,387,455,404
471270,379,454,396
471271,370,453,383
471272,362,451,373
471273,355,454,364
471274,348,453,355
471275,344,456,350
471276,337,456,339
471277,328,453,330
471278,324,455,321
471279,323,451,326
471280,329,453,334
471281,338,451,344
471282,347,450,354
471283,353,452,365
471284,360,452,370
471285,366,449,378
471286,373,453,388
471287,383,456,400
471288,390,460,408
471289,390,462,409
471290,385,462,402
471291,377,464,390
471292,368,464,380
471293,359,460,370
471294,354,457,362
471295,348,455,353
471296,340,457,344
471297,331,455,333
471298,325,456,325
471299,325,450,325
471300,331,453,335
471301,342,454,346
471302,350,453,357
471303,356,452,366
471304,361,453,373
471305,366,453,379
471306,374,453,390
471307,382,453,400
471308,389,453,408
471309,387,454,407
471310,380,456,397
471311,372,457,387
471312,364,454,375
471313,355,454,364
471314,351,458,357
471315,346,457,352
471316,339,458,342
471317,329,459,332
471318,325,459,324
471319,327,459,328
471320,335,456,337
471321,343,455,348
471322,350,457,358
471323,358,455,368
471324,362,455,374
471325,370,453,381
471326,378,455,392
471327,384,457,402
471328,390,459,410
471329,390,458,409
471330,382,462,399
471331,373,457,388
471332,363,457,378
471333,357,458,365
471334,351,457,358
471335,346,458,351
471336,338,457,342
471337,329,458,333
471338,325,459,325
471339,325,456,327
471340,333,454,336
471341,341,457,348
471342,350,458,358
471343,358,459,368
471344,367,460,377
471345,371,460,384
471346,379,460,395
471347,386,464,406
471348,393,463,413
471349,393,460,411
471350,385,461,400
471351,375,462,388
471352,367,459,378
471353,359,459,368
471354,352,457,361
471355,347,456,354
471356,339,457,344
471357,331,461,332
471358,326,456,328
471359,329,459,330
471360,335,458,338
471361,344,458,350
471362,352,458,359
471363,360,457,369
471364,365,461,376
471365,372,462,385
471366,382,463,400
471367,389,465,408
471368,397,468,418
471369,395,466,416
471370,388,467,405
471371,380,465,392
471372,371,465,384
471373,364,462,373
471374,356,464,366
471375,349,460,355
471376,341,458,345
471377,334,459,334
471378,328,458,327
471379,327,458,330
471380,336,457,337
471381,345,459,351
471382,353,458,360
471383,360,457,370
471384,366,460,379
471385,372,459,384
471386,380,460,395
471387,387,459,405
471388,392,459,411
471389,389,459,409
471390,384,460,400
471391,373,460,388
471392,367,461,378
471393,360,461,370
471394,354,461,361
471395,348,462,353
471396,341,460,343
471397,333,458,332
471398,327,455,326
471399,327,457,327
471400,334,456,335
471401,343,455,350
471402,352,454,359
471403,358,457,369
471404,365,458,377
471405,369,458,382
471406,378,458,394
471407,387,457,403
471408,394,462,412
471409,391,462,410
471410,385,459,399
471411,376,464,389
471412,368,462,378
471413,362,462,370
471414,356,462,361
471415,349,463,355
471416,344,461,346
471417,335,464,336
471418,330,467,329
471419,334,467,333
471420,340,462,344
471421,350,465,358
471422,357,466,365
471423,365,463,375
471424,371,461,382
471425,373,462,389
471426,383,463,400
471427,391,463,409
471428,396,463,415
471429,395,463,411
471430,385,462,400
471431,376,462,390
471432,368,459,377
471433,359,460,370
471434,353,463,360
471435,349,464,355
471436,343,463,347
471437,336,466,337
471438,330,467,331
471439,334,467,334
471440,342,467,344
471441,350,463,355
471442,356,461,364
471443,363,462,372
471444,369,460,381
471445,373,460,387
471446,381,464,398
471447,391,464,407
471448,397,464,416
471449,392,464,410
471450,386,460,402
471451,375,455,388
471452,366,459,377
471453,359,460,368
471454,354,466,360
471455,350,469,358
471456,344,471,349
471457,338,473,340
471458,335,474,335
471459,336,471,339
471460,344,467,346
471461,351,463,356
471462,357,462,364
471463,364,459,374
471464,370,459,380
471465,372,459,386
471466,381,458,396
471467,389,461,406
471468,393,463,415
471469,391,466,410
471470,385,463,402
471471,375,464,389
471472,367,462,379
471473,359,459,369
471474,352,457,359
471475,348,458,354
471476,340,460,342
471477,334,457,333
471478,326,461,327
471479,329,460,331
471480,336,460,340
471481,345,457,351
471482,353,460,361
471483,360,458,371
471484,366,459,378
471485,374,460,386
471486,381,459,396
471487,387,461,407
471488,392,461,411
471489,390,459,409
471490,384,459,398
471491,373,458,386
471492,366,461,376
471493,357,459,366
471494,351,462,359
471495,345,460,353
471496,338,457,342
471497,330,456,332
471498,326,453,324
471499,326,455,328
471500,334,456,337
471501,344,457,351
471502,352,458,361
471503,359,462,370
471504,367,459,379
471505,372,459,384
471506,380,457,396
471507,389,460,406
471508,392,460,412
471509,390,458,407
471510,383,458,399
471511,374,461,387
471512,364,461,377
471513,358,461,367
471514,352,457,359
471515,347,461,353
471516,340,459,343
471517,332,457,331
471518,326,458,325
471519,328,455,331
471520,335,456,338
471521,344,457,349
471522,353,458,359
471523,361,457,371
471524,367,461,379
471525,373,459,385
471526,381,464,397
471527,389,461,408
471528,394,459,411
471529,390,457,408
471530,381,455,398
471531,372,455,384
471532,363,456,373
471533,355,456,364
471534,350,457,357
471535,344,457,352
471536,338,459,341
471537,330,461,330
471538,326,461,326
471539,329,464,332
471540,337,461,340
471541,347,458,354
471542,355,458,363
471543,360,458,371
471544,366,457,378
471545,372,460,385
471546,381,460,398
471547,388,460,408
471548,392,460,413
471549,390,462,409
471550,384,460,400
471551,373,456,386
471552,363,458,375
471553,358,457,368
471554,351,457,357
471555,345,455,350
471556,337,457,339
471557,328,453,330
471558,323,456,323
471559,326,453,327
471560,332,452,335
471561,342,453,348
471562,349,451,357
471563,356,450,366
471564,363,451,373
471565,367,453,382
471566,375,455,392
471567,385,456,402
471568,390,458,409
471569,388,457,407
471570,380,456,397
471571,370,456,383
471572,362,454,372
471573,354,453,363
471574,347,454,354
471575,343,457,349
471576,337,459,339
471577,331,466,333
471578,330,467,330
471579,335,471,336
471580,343,470,345
471581,351,469,358
471582,359,468,368
471583,367,465,377
471584,370,460,383
471585,375,459,385
471586,380,458,397
471587,387,451,404
471588,391,456,409
471589,388,453,406
471590,381,453,395
471591,370,455,383
471592,363,458,372
471593,354,456,364
471594,351,458,358
471595,347,458,352
471596,339,460,341
471597,332,462,332
471598,327,461,327
471599,330,463,331
471600,339,464,343
471601,349,465,356
471602,357,462,365
471603,364,462,373
471604,369,463,381
471605,373,459,387
471606,381,456,398
471607,387,457,406
471608,390,457,410
471609,387,454,406
471610,379,455,396
471611,370,454,382
471612,361,455,372
471613,355,452,364
471614,347,451,354
471615,341,451,347
471616,333,451,336
471617,326,448,326
471618,321,448,318
471619,321,447,324
471620,329,444,332
471621,339,447,345
471622,344,448,354
471623,354,449,363
471624,359,447,372
471625,365,452,378
471626,373,450,389
471627,381,452,401
471628,388,451,406
471629,385,455,403
471630,378,457,394
471631,370,458,382
471632,364,462,373
471633,356,463,365
471634,352,464,359
471635,347,462,354
471636,341,464,344
471637,332,461,335
471638,328,458,330
471639,330,455,333
471640,336,457,340
471641,345,457,351
471642,353,459,362
471643,362,461,372
471644,368,462,381
471645,374,468,387
471646,383,463,399
471647,392,462,409
471648,398,461,414
471649,391,461,410
471650,384,460,399
471651,373,462,383
471652,365,461,375
471653,358,464,368
471654,352,463,361
471655,348,462,354
471656,342,465,345
471657,333,465,336
471658,330,467,329
471659,333,464,334
471660,339,461,344
471661,346,457,353
471662,353,455,361
471663,358,451,367
471664,363,451,376
471665,368,452,381
471666,375,452,392
471667,384,451,402
471668,387,452,408
471669,384,451,402
471670,377,449,392
471671,365,451,379
471672,360,451,368
471673,352,450,361
471674,345,451,352
471675,340,452,345
471676,332,449,334
471677,328,451,327
471678,322,456,322
471679,327,458,328
471680,334,456,338
471681,344,458,352
471682,353,456,361
471683,358,457,369
471684,365,455,378
471685,370,463,384
471686,380,455,396
471687,386,455,405
471688,392,458,411
471689,388,457,404
471690,380,456,395
471691,370,457,383
471692,363,456,374
471693,357,455,365
471694,350,459,357
471695,345,459,351
471696,338,460,340
471697,329,456,330
471698,325,453,324
471699,329,456,330
471700,335,458,338
471701,345,458,352
471702,355,460,363
471703,362,462,372
471704,369,465,381
471705,375,465,389
471706,384,467,401
471707,392,465,410
471708,395,465,416
471709,393,465,410
471710,385,462,402
471711,373,460,387
471712,366,458,377
471713,358,458,367
471714,351,458,357
471715,345,460,351
471716,339,464,342
471717,332,464,333
471718,329,462,328
471719,331,461,333
471720,337,460,342
471721,347,454,353
471722,353,454,361
471723,357,451,367
471724,362,450,373
471725,367,452,382
471726,377,456,394
471727,384,455,404
471728,390,457,410
471729,386,456,404
471730,380,457,394
471731,369,454,379
471732,360,450,372
471733,352,450,362
471734,346,451,352
471735,343,451,347
471736,334,452,336
471737,326,449,327
471738,321,452,321
471739,324,449,325
471740,333,451,334
471741,341,452,347
471742,349,454,358
471743,357,456,368
471744,364,455,376
471745,369,456,383
471746,379,459,397
471747,387,461,406
471748,393,460,414
471749,387,459,406
471750,381,456,397
471751,371,455,382
471752,361,453,372
471753,353,453,363
471754,347,454,353
471755,344,452,349
471756,335,453,336
471757,328,457,329
471758,325,460,326
471759,330,460,331
471760,338,464,341
471761,348,466,354
471762,358,463,366
471763,363,463,374
471764,370,461,382
471765,374,458,386
471766,381,454,398
471767,387,456,406
471768,393,456,411
471769,388,456,405
471770,378,459,397
471771,370,460,382
471772,364,462,374
471773,358,463,367
471774,352,463,359
471775,347,463,353
471776,340,463,344
471777,333,462,334
471778,329,462,329
471779,332,459,333
471780,338,458,342
471781,347,457,354
471782,354,456,362
471783,362,458,371
471784,366,459,378
471785,372,460,386
471786,382,460,397
471787,387,457,406
471788,392,458,411
471789,387,457,404
471790,379,456,396
471791,369,457,381
471792,363,458,372
471793,355,461,364
471794,351,463,358
471795,347,465,354
471796,340,467,344
471797,332,465,335
471798,329,466,331
471799,334,462,336
471800,341,461,346
471801,350,460,357
471802,356,460,365
471803,361,459,372
471804,369,457,380
471805,372,457,384
471806,379,457,397
471807,388,460,406
471808,392,459,412
471809,388,458,406
471810,381,460,397
471811,370,460,384
471812,362,459,372
471813,356,459,364
471814,349,458,356
471815,346,457,351
471816,336,457,340
471817,329,457,330
471818,323,458,325
471819,330,456,330
471820,335,459,341
471821,348,458,356
471822,357,463,364
471823,362,461,374
471824,369,459,381
471825,372,463,388
471826,382,462,400
471827,392,464,410
471828,396,463,415
471829,393,465,410
471830,386,466,401
471831,374,468,388
471832,368,465,379
471833,361,465,371
471834,354,464,361
471835,349,463,354
471836,339,462,342
471837,332,461,334
471838,329,461,328
471839,333,465,336
471840,342,467,346
471841,351,470,359
471842,360,468,369
471843,367,469,378
471844,373,471,386
471845,377,467,393
471846,389,468,404
471847,394,469,413
471848,400,463,417
471849,393,465,411
471850,386,465,400
471851,375,466,389
471852,368,467,379
471853,361,467,368
471854,354,466,361
471855,351,466,357
471856,343,470,346
471857,337,472,339
471858,335,475,336
471859,339,472,342
471860,347,474,352
471861,357,472,364
471862,364,472,374
471863,370,465,382
471864,375,468,388
471865,380,468,393
471866,389,468,405
471867,394,465,413
471868,397,464,417
471869,394,466,412
471870,386,466,402
471871,375,467,390
471872,369,465,379
471873,364,467,371
471874,357,466,363
471875,353,468,357
471876,343,466,345
471877,335,468,335
471878,331,467,331
471879,335,468,337
471880,342,467,347
471881,353,466,358
471882,359,466,368
471883,366,463,376
471884,373,467,386
471885,377,467,391
471886,388,470,404
471887,396,472,414
471888,401,472,421
471889,395,472,415
471890,389,471,406
471891,379,472,392
471892,372,474,383
471893,366,472,375
471894,359,470,366
471895,354,471,362
471896,345,473,348
471897,338,472,340
471898,335,472,334
471899,338,472,341
471900,346,469,351
471901,353,469,362
471902,362,469,371
471903,367,469,380
471904,375,469,387
471905,380,469,393
471906,389,468,406
471907,397,467,415
471908,402,470,419
471909,395,469,414
471910,388,469,404
471911,379,469,391
471912,371,473,383
471913,366,478,376
471914,362,481,369
471915,359,482,366
471916,351,483,355
471917,344,481,345
471918,339,479,340
471919,344,479,346
471920,350,476,354
471921,358,472,365
471922,365,472,374
471923,372,471,382
471924,378,472,389
471925,382,471,396
471926,392,471,409
471927,398,469,417
471928,401,467,421
471929,396,465,414
471930,390,467,406
471931,377,465,391
471932,370,466,381
471933,363,466,373
471934,356,468,364
471935,352,468,360
471936,344,468,345
471937,337,471,337
471938,331,471,331
471939,340,473,340
471940,346,474,349
471941,357,473,364
471942,363,472,374
471943,370,472,381
471944,376,471,390
471945,381,473,396
471946,392,471,410
471947,398,470,418
471948,402,472,422
471949,397,470,416
471950,390,472,406
471951,380,471,393
471952,373,471,381
471953,365,469,373
471954,358,470,364
471955,355,467,359
471956,344,469,346
471957,337,468,337
471958,333,469,333
471959,337,467,339
471960,344,468,350
471961,354,468,361
471962,361,467,372
471963,367,469,378
471964,375,468,388
471965,380,468,392
471966,388,465,406
471967,397,468,415
471968,400,476,421
471969,399,475,415
471970,391,474,408
471971,381,476,394
471972,375,473,386
471973,368,474,377
471974,360,473,368
471975,356,469,362
471976,345,469,350
471977,337,468,339
471978,333,467,332
471979,337,468,339
471980,343,466,347
471981,354,470,360
471982,361,469,368
471983,367,467,378
471984,375,468,386
471985,379,468,393
471986,389,469,405
471987,395,467,414
471988,399,467,419
471989,392,467,411
471990,385,465,403
471991,376,464,388
471992,368,467,379
471993,363,464,370
471994,356,464,362
471995,349,466,356
471996,342,464,344
471997,334,467,334
471998,332,470,331
471999,335,469,338
472000,343,469,347
472001,354,470,361
472002,363,469,371
472003,370,472,380
472004,376,466,389
472005,379,467,393
472006,390,468,407
472007,395,464,415
472008,398,467,421
472009,395,466,412
472010,387,467,402
472011,376,468,389
472012,369,468,380
472013,362,468,373
472014,354,466,362
472015,350,463,357
472016,341,466,344
472017,333,463,334
472018,331,461,330
472019,335,465,336
472020,341,466,346
472021,354,468,361
472022,361,466,369
472023,367,470,378
472024,375,469,388
472025,380,472,396
472026,393,474,409
472027,400,480,419
472028,404,477,425
472029,399,477,417
472030,391,476,408
472031,381,472,394
472032,374,472,385
472033,364,469,375
472034,358,468,365
472035,352,468,360
472036,342,467,344
472037,335,467,336
472038,329,462,331
472039,336,464,339
472040,341,463,347
472041,353,465,358
472042,360,465,368
472043,367,467,376
472044,372,465,386
472045,377,465,391
472046,388,468,405
472047,396,468,415
472048,400,467,419
472049,394,469,413
472050,387,468,403
472051,377,467,390
472052,369,468,379
472053,364,469,373
472054,357,466,364
472055,352,471,358
472056,344,469,348
472057,338,471,338
472058,334,472,335
472059,339,470,342
472060,345,469,348
472061,355,467,363
472062,362,468,371
472063,367,467,378
472064,374,463,387
472065,378,462,393
472066,387,462,403
472067,394,464,413
472068,397,465,418
472069,392,466,409
472070,385,466,399
472071,374,465,386
472072,367,463,377
472073,360,465,372
472074,353,465,361
472075,349,465,355
472076,339,462,341
472077,333,464,333
472078,328,463,330
472079,335,462,336
472080,342,462,345
472081,353,463,359
472082,360,463,367
472083,366,462,375
472084,372,464,384
472085,377,461,390
472086,387,463,404
472087,395,463,413
472088,397,465,417
472089,392,461,407
472090,386,464,401
472091,375,465,387
472092,368,461,376
472093,361,464,368
472094,355,463,361
472095,349,463,354
472096,339,465,341
472097,332,464,333
472098,329,465,329
472099,334,465,336
472100,341,463,346
