Time (ms),Bicep,Shoulder,Tricep
1761427,360,458,368
1761428,360,460,370
1761429,360,458,368
1761430,359,457,368
1761431,356,457,368
1761432,357,456,367
1761433,357,456,367
1761434,357,455,367
1761435,355,457,366
1761436,357,457,368
1761437,356,456,366
1761438,357,456,367
1761439,357,457,367
1761440,357,455,367
1761441,358,458,367
1761442,358,457,367
1761443,358,457,367
1761444,359,456,369
1761445,360,457,369
1761446,360,459,369
1761447,359,459,369
1761448,359,457,367
1761449,359,458,368
1761450,358,457,367
1761451,358,455,368
1761452,359,454,366
1761453,359,457,366
1761454,359,453,366
1761455,357,456,366
1761456,358,456,368
1761457,357,456,368
1761458,358,457,367
1761459,358,456,366
1761460,358,456,368
1761461,359,456,369
1761462,358,456,368
1761463,360,456,370
1761464,359,457,368
1761465,359,457,368
1761466,359,457,368
1761467,360,457,369
1761468,358,457,367
1761469,357,457,367
1761470,357,457,366
1761471,356,459,365
1761472,356,457,367
1761473,358,453,365
1761474,355,456,365
1761475,357,454,366
1761476,356,457,366
1761477,355,455,366
1761478,356,455,365
1761479,356,455,366
1761480,358,456,367
1761481,357,456,369
1761482,358,457,367
1761483,358,457,368
1761484,358,457,367
1761485,358,459,368
1761486,359,456,369
1761487,359,458,368
1761488,358,459,367
1761489,358,457,369
1761490,360,455,367
1761491,359,458,367
1761492,356,457,365
1761493,357,458,366
1761494,357,458,367
1761495,357,457,367
1761496,358,453,367
1761497,357,454,366
1761498,359,452,367
1761499,356,455,367
1761500,357,455,367
1761501,357,455,366
1761502,357,457,367
1761503,358,456,368
1761504,359,456,368
1761505,358,459,370
1761506,359,457,367
1761507,359,457,367
1761508,358,457,367
1761509,357,458,369
1761510,357,458,367
1761511,357,457,367
1761512,358,458,368
1761513,358,457,366
1761514,358,456,366
1761515,358,457,366
1761516,356,455,366
1761517,356,458,367
1761518,357,456,366
1761519,358,457,368
1761520,357,457,368
1761521,359,457,368
1761522,358,456,367
1761523,358,457,369
1761524,358,457,369
1761525,359,458,368
1761526,360,457,369
1761527,358,458,370
1761528,360,460,368
1761529,357,458,367
1761530,358,459,367
1761531,358,456,366
1761532,357,458,366
1761533,359,456,366
1761534,358,457,368
1761535,358,456,366
1761536,357,455,367
1761537,358,456,367
1761538,357,456,366
1761539,356,455,369
1761540,357,454,369
1761541,357,452,368
1761542,357,457,368
1761543,358,458,369
1761544,359,457,368
1761545,359,458,370
1761546,358,457,369
1761547,359,459,367
1761548,358,458,368
1761549,358,455,368
1761550,357,455,367
1761551,357,457,367
1761553,356,457,365
1761554,358,457,366
1761555,357,457,365
1761556,356,457,365
1761557,358,456,367
1761558,358,455,367
1761558,358,454,367
1761559,358,456,367
1761560,358,456,368
1761561,358,456,368
1761562,357,456,368
1761563,359,456,369
1761564,359,457,370
1761565,359,457,369
1761566,359,457,369
1761567,359,462,370
1761568,359,459,368
1761569,359,458,369
1761570,358,458,367
1761571,358,459,366
1761572,358,459,367
1761573,358,459,367
1761574,357,458,366
1761575,357,459,367
1761576,357,455,366
1761577,357,454,367
1761578,357,457,368
1761579,359,458,367
1761580,359,456,367
1761581,359,458,368
1761582,358,458,368
1761583,360,459,370
1761584,358,459,368
1761585,360,458,370
1761586,359,457,370
1761587,359,460,370
1761588,360,459,368
1761589,359,459,370
1761590,358,459,369
1761591,358,459,366
1761592,358,457,367
1761593,356,459,368
1761594,358,458,366
1761595,358,458,368
1761596,358,454,367
1761597,358,457,367
1761598,358,456,367
1761599,358,455,368
1761600,358,457,367
1761601,360,457,370
1761602,360,457,368
1761603,360,458,369
1761604,358,458,369
1761605,360,459,368
1761606,361,459,369
1761607,360,460,370
1761608,359,462,369
1761609,360,459,368
1761610,360,457,369
1761611,360,459,368
1761612,359,457,367
1761613,359,456,367
1761614,359,455,368
1761615,358,456,365
1761616,359,456,368
1761617,359,454,368
1761618,357,458,368
1761619,359,457,368
1761620,359,456,369
1761621,359,459,368
1761622,359,458,369
1761623,360,458,369
1761624,360,458,368
1761625,360,457,370
1761626,360,459,368
1761627,359,458,370
1761628,359,458,368
1761629,359,460,368
1761630,359,458,368
1761631,359,460,368
1761632,359,459,367
1761633,358,459,367
1761634,359,455,366
1761635,359,458,367
1761636,358,458,368
1761637,356,457,367
1761638,358,457,368
1761639,357,458,368
1761640,359,457,366
1761641,357,458,369
1761642,359,457,370
1761643,360,457,369
1761644,360,459,368
1761645,359,459,369
1761646,359,459,370
1761647,361,458,369
1761648,360,459,367
1761649,359,456,369
1761650,358,460,368
1761651,359,459,367
1761652,360,456,367
1761653,358,458,368
1761654,358,460,366
1761655,358,458,367
1761656,358,456,368
1761657,360,457,368
1761658,359,456,368
1761659,359,457,368
1761660,359,458,369
1761661,359,457,368
1761662,360,457,370
1761663,360,459,370
1761664,361,459,368
1761665,359,456,369
1761666,359,460,370
1761667,359,458,368
1761668,361,460,367
1761669,359,457,368
1761670,359,458,368
1761671,357,460,368
1761672,358,457,366
1761673,357,455,367
1761674,358,460,367
1761675,358,458,367
1761676,360,457,368
1761677,357,458,368
1761678,358,457,368
1761679,359,457,368
1761680,358,455,369
1761681,358,454,369
1761682,360,457,369
1761683,360,458,370
1761684,360,458,369
1761685,360,458,369
1761686,359,456,369
1761687,360,456,369
1761688,359,458,368
1761689,359,459,367
1761690,359,456,368
1761691,357,459,368
1761692,359,456,367
1761693,358,461,367
1761694,358,457,367
1761695,358,457,367
1761696,357,458,366
1761697,358,457,366
1761698,358,456,367
1761699,359,456,368
1761700,359,456,369
1761701,358,456,367
1761702,359,456,369
1761703,358,458,370
1761704,360,458,370
1761705,359,459,369
1761706,360,457,369
1761707,359,457,369
1761708,359,460,367
1761709,359,457,369
1761710,359,458,368
1761711,358,458,368
1761712,358,459,368
1761713,358,457,368
1761714,357,458,366
1761715,358,458,367
1761716,358,459,366
1761717,358,456,367
1761718,357,458,367
1761719,358,455,367
1761720,357,458,368
1761721,358,457,368
1761722,357,458,368
1761723,358,459,368
1761724,359,460,369
1761725,359,459,370
1761726,359,456,369
1761727,358,457,368
1761728,360,458,369
1761729,358,460,368
1761730,359,457,369
1761731,359,456,367
1761732,356,458,367
1761733,358,458,367
1761734,358,459,367
1761735,358,455,366
1761736,358,456,367
1761737,357,457,365
1761738,357,457,366
1761739,357,457,368
1761740,359,457,369
1761741,360,457,370
1761742,360,456,369
1761743,358,456,369
1761744,359,458,369
1761745,359,457,370
1761746,358,458,368
1761747,360,459,370
1761748,360,458,369
1761749,360,460,369
1761750,359,456,368
1761751,358,457,368
1761752,359,457,368
1761753,358,457,365
1761754,358,457,366
1761755,357,455,367
1761756,358,458,366
1761757,358,456,367
1761758,358,457,366
1761759,359,458,366
1761760,357,452,367
1761761,359,456,368
1761762,357,457,368
1761763,359,457,369
1761764,357,459,369
1761765,358,459,369
1761766,360,459,369
1761767,359,458,369
1761768,356,459,368
1761769,357,458,368
1761770,358,459,367
1761771,358,459,367
1761772,358,458,367
1761773,358,458,367
1761774,358,456,366
1761775,358,457,366
1761776,358,458,364
1761777,358,457,367
1761778,357,457,368
1761779,358,456,367
1761780,356,456,367
1761781,359,457,367
1761782,359,458,368
1761783,359,456,369
1761784,359,458,368
1761785,358,456,369
1761786,360,459,369
1761787,359,459,368
1761788,360,459,367
1761789,358,459,369
1761790,358,459,368
1761791,358,460,367
1761792,357,459,367
1761793,358,459,367
1761794,358,457,367
1761795,359,458,367
1761796,360,457,365
1761797,356,456,367
1761798,358,456,368
1761799,357,455,367
1761800,356,455,367
1761801,357,457,367
1761802,358,460,368
1761803,360,457,369
1761804,360,460,369
1761805,360,458,369
1761806,360,458,368
1761807,361,457,370
1761808,359,461,369
1761809,359,459,367
1761810,359,460,368
1761811,358,460,368
1761812,358,460,369
1761813,358,457,368
1761814,358,458,366
1761815,357,458,366
1761816,355,458,367
1761817,359,456,367
1761818,356,457,368
1761819,358,456,368
1761820,357,458,368
1761821,358,456,367
1761822,357,458,370
1761823,358,458,370
1761824,357,458,370
1761825,358,457,369
1761826,360,458,370
1761827,359,462,367
1761828,358,458,368
1761829,359,459,367
1761830,359,460,368
1761831,358,459,368
1761832,359,457,366
1761833,358,456,367
1761834,358,454,367
1761835,357,456,367
1761836,357,455,367
1761837,357,458,366
1761838,359,457,368
1761839,358,455,367
1761840,357,457,368
1761841,358,456,367
1761842,357,457,367
1761843,359,457,367
1761844,360,457,369
1761845,359,458,368
1761846,359,458,369
1761847,358,459,367
1761848,359,460,368
1761849,359,459,368
1761850,360,456,368
1761851,358,459,368
1761852,358,459,367
1761853,357,458,367
1761854,357,457,367
1761855,358,457,367
1761856,357,455,367
1761857,358,457,368
1761858,359,457,367
1761859,359,457,369
1761860,359,457,368
1761861,360,455,370
1761862,359,457,367
1761863,358,459,369
1761864,360,458,368
1761865,359,455,369
1761866,359,457,369
1761867,359,459,368
1761868,358,457,368
1761869,358,459,368
1761870,359,458,369
1761871,358,456,369
1761872,359,460,367
1761873,359,458,367
1761874,358,458,367
1761875,357,458,367
1761876,357,457,368
1761877,358,457,367
1761878,358,459,368
1761879,358,459,369
1761880,359,457,369
1761881,359,457,368
1761882,359,458,369
1761883,360,455,368
1761884,360,459,370
1761885,360,460,370
1761886,360,462,370
1761887,359,459,370
1761888,360,458,369
1761889,360,458,368
1761890,359,461,369
1761891,358,459,368
1761892,359,459,367
1761893,357,458,368
1761894,358,460,368
1761895,359,457,367
1761896,358,457,367
1761897,356,457,367
1761898,357,456,368
1761899,358,458,369
1761900,357,457,369
1761901,357,458,369
1761902,357,455,369
1761903,359,455,369
1761904,359,458,369
1761905,360,460,369
1761906,360,459,370
1761907,359,458,370
1761908,360,461,369
1761909,360,458,370
1761910,359,459,367
1761911,358,457,367
1761912,358,458,367
1761913,357,458,368
1761914,359,458,367
1761915,358,458,367
1761916,358,458,367
1761917,359,457,367
1761918,358,457,366
1761919,358,456,368
1761920,357,458,369
1761921,359,457,369
1761922,359,457,369
1761923,360,457,370
1761924,360,458,370
1761925,361,459,370
1761926,359,459,370
1761927,360,457,370
1761928,359,458,369
1761929,360,459,369
1761930,359,460,368
1761931,358,458,367
1761932,357,460,367
1761933,358,458,367
1761934,358,460,367
1761935,359,457,366
1761936,358,458,367
1761937,358,457,368
1761938,358,457,368
1761939,358,458,367
1761940,358,458,369
1761941,359,458,370
1761942,360,458,370
1761943,359,458,370
1761944,359,459,369
1761945,360,459,369
1761946,359,460,369
1761947,360,457,368
1761948,359,459,369
1761949,359,457,369
1761950,359,459,368
1761951,360,460,366
1761952,359,458,369
1761953,360,460,368
1761954,359,458,367
1761955,358,457,367
1761956,357,458,368
1761957,357,458,367
1761958,357,457,367
1761959,359,458,368
1761960,358,457,368
1761961,359,458,369
1761962,360,457,368
1761963,359,459,369
1761964,360,456,368
1761965,360,455,369
1761966,361,458,370
1761967,360,460,367
1761968,359,459,370
1761969,359,456,368
1761970,359,460,368
1761971,358,459,368
1761972,359,458,368
1761973,358,460,367
1761974,357,457,367
1761975,360,458,368
1761976,358,454,367
1761977,358,455,366
1761978,358,455,368
1761979,359,457,367
1761980,358,457,368
1761981,360,458,368
1761982,359,459,369
1761983,359,456,369
1761984,357,458,370
1761985,358,458,368
1761986,359,458,368
1761987,360,459,368
1761988,358,458,367
1761989,359,459,367
1761990,358,457,369
1761991,359,457,367
1761992,358,460,367
1761993,357,458,367
1761994,358,456,367
1761995,356,457,365
1761996,358,458,366
1761997,358,454,366
1761998,357,457,367
1761999,358,457,368
1762000,357,458,368
1762001,359,457,369
1762002,359,457,369
1762003,360,458,369
1762004,359,457,369
1762005,360,459,369
1762006,360,459,369
1762007,359,456,369
1762008,358,459,368
1762009,359,458,368
1762010,358,458,367
1762011,360,459,368
1762012,357,459,367
1762013,358,459,367
1762014,358,457,367
1762015,359,456,367
1762016,357,457,367
1762017,359,457,369
1762018,357,456,368
1762019,358,457,368
1762020,359,456,369
1762021,359,457,368
1762022,359,455,370
1762023,359,459,368
1762024,358,458,370
1762025,358,460,369
1762026,359,459,368
1762027,358,459,367
1762028,358,460,368
1762029,358,459,367
1762030,358,458,367
1762031,358,458,368
1762032,357,459,367
1762033,358,458,367
1762034,357,457,366
1762035,357,457,367
1762036,358,457,367
1762037,359,457,367
1762038,358,457,368
1762039,357,458,367
1762040,359,459,367
1762041,358,456,369
1762042,358,457,369
1762043,358,458,368
1762044,361,460,371
1762045,358,459,370
1762046,359,459,368
1762047,360,457,369
1762048,357,460,369
1762049,359,459,368
1762050,359,459,368
1762051,358,458,368
1762052,357,458,367
1762053,357,460,367
1762054,356,460,367
1762055,357,457,366
1762056,358,457,368
1762057,359,456,368
1762058,357,457,367
1762059,359,457,367
1762060,359,457,369
1762061,360,455,370
1762062,359,458,368
1762063,359,457,369
1762064,358,458,367
1762065,359,455,370
1762066,360,457,371
1762067,358,459,369
1762068,360,459,367
1762069,360,457,369
1762070,358,459,368
1762071,359,459,366
1762072,358,457,367
1762073,357,455,367
1762074,358,459,365
1762075,357,455,366
1762076,357,457,367
1762077,358,458,366
1762078,358,456,368
1762079,358,457,368
1762080,358,458,369
1762081,359,457,369
1762082,359,456,368
1762083,360,456,369
1762084,359,458,369
1762085,358,458,368
1762086,360,458,368
1762087,359,459,368
1762088,359,457,369
1762089,358,457,367
1762090,358,460,367
1762091,358,458,366
1762092,358,458,367
1762093,357,454,367
1762094,358,455,366
1762095,357,457,367
1762096,357,456,367
1762097,359,458,368
1762098,358,456,368
1762099,358,456,368
1762100,359,455,368
1762101,358,457,369
1762102,360,458,369
1762103,360,456,370
1762104,358,456,368
1762105,359,457,368
1762106,360,459,368
1762107,358,460,370
1762108,360,457,368
1762109,360,457,369
1762110,358,460,369
1762111,360,459,368
1762112,358,459,366
1762113,357,459,368
1762114,358,456,366
1762115,358,456,367
1762116,358,456,368
1762117,358,458,368
1762118,359,455,367
1762119,359,456,368
1762120,358,457,369
1762121,359,456,369
1762122,360,457,368
1762123,357,457,369
1762124,359,458,370
1762125,359,459,369
1762126,360,457,367
1762127,360,461,369
1762128,359,459,368
1762129,359,459,368
1762130,357,457,368
1762131,357,459,367
1762132,357,458,367
1762133,358,457,367
1762134,357,458,367
1762135,358,453,367
1762136,359,457,367
1762137,359,457,366
1762138,359,455,366
1762139,358,455,368
1762140,358,458,368
1762141,359,455,368
1762142,359,457,369
1762143,356,458,369
1762144,358,457,369
1762145,360,458,370
1762146,359,457,369
1762147,359,459,369
1762148,360,455,369
1762149,359,456,369
1762150,360,459,368
1762151,358,460,367
1762152,358,457,366
1762153,358,456,366
1762154,358,457,366
1762155,357,458,367
1762156,358,457,367
1762157,359,459,368
1762158,358,456,367
1762159,357,456,367
1762160,358,457,369
1762161,358,458,368
1762162,359,457,369
1762163,359,457,370
1762164,360,456,369
1762165,359,459,369
1762166,359,459,369
1762167,360,459,368
1762168,359,459,368
1762169,359,459,368
1762170,359,459,368
1762171,358,459,368
1762172,358,458,368
1762177,353,457,363
1762178,355,455,364
1762179,356,457,366
1762180,358,458,366
1762181,358,458,368
1762182,358,458,366
1762183,360,457,368
1762184,359,460,368
1762184,359,458,369
1762185,359,457,368
1762186,361,457,370
1762187,360,460,369
1762188,360,460,370
1762189,361,459,369
1762190,359,460,367
1762191,360,458,369
1762192,359,459,368
1762193,360,458,368
1762193,359,458,368
1762194,358,458,367
1762195,357,459,369
1762196,359,459,368
1762197,359,459,370
1762198,358,458,368
1762199,358,456,370
1762200,359,457,369
1762201,359,458,371
1762202,360,458,369
1762202,359,456,370
1762203,359,458,369
1762204,360,458,371
1762205,361,460,370
1762206,361,459,370
1762207,359,457,369
1762208,359,461,370
1762209,359,458,368
1762210,361,458,369
1762210,359,459,368
1762211,359,458,368
1762212,360,458,370
1762213,359,458,367
1762214,359,459,369
1762215,360,459,367
1762216,359,455,369
1762217,360,459,368
1762218,360,458,370
1762219,361,457,369
1762220,360,458,370
1762221,361,458,370
1762222,360,459,369
1762223,360,458,370
1762224,360,458,370
1762225,360,460,370
1762226,361,461,371
1762227,359,459,368
1762228,360,458,369
1762229,360,460,370
1762230,360,459,370
1762231,359,459,368
1762232,359,460,368
1762233,358,460,369
1762234,358,460,368
1762235,359,459,368
1762236,358,459,368
1762237,356,458,367
1762238,358,458,368
1762239,360,459,369
1762240,360,458,369
1762241,361,459,369
1762242,360,458,370
1762243,360,460,371
1762244,360,459,370
1762245,361,461,371
1762246,360,456,370
1762247,361,460,370
1762248,360,459,369
1762249,359,460,369
1762250,360,459,369
1762251,359,461,370
1762252,359,460,368
1762253,358,460,368
1762254,359,459,369
1762255,358,460,367
1762256,359,458,368
1762257,356,458,369
1762258,360,458,368
1762259,359,455,369
1762260,359,456,368
1762261,360,459,370
1762262,361,459,369
1762263,360,460,370
1762264,361,461,371
1762265,359,458,369
1762266,359,460,369
1762267,360,460,370
1762268,359,460,368
1762269,359,459,368
1762270,361,460,368
1762271,359,460,369
1762272,360,456,368
1762273,359,459,367
1762274,357,458,367
1762275,357,459,367
1762276,360,459,368
1762277,359,457,368
1762278,359,459,368
1762279,358,459,368
1762280,358,458,370
1762281,359,459,370
1762282,359,458,370
1762283,360,459,371
1762284,360,461,370
1762285,360,458,370
1762286,362,460,370
1762287,361,459,370
1762288,360,457,370
1762289,359,457,369
1762290,360,461,369
1762291,360,459,369
1762292,360,457,369
1762293,357,459,367
1762294,359,458,368
1762295,358,456,367
1762296,358,458,368
1762297,358,458,367
1762298,359,457,368
1762299,359,458,370
1762300,359,458,369
1762301,359,460,369
1762302,359,457,370
1762303,360,457,369
1762304,361,456,369
1762305,361,461,370
1762306,361,459,370
1762307,360,461,370
1762308,359,461,367
1762309,359,460,369
1762310,359,460,368
1762311,360,460,368
1762312,359,458,369
1762313,359,458,369
1762314,360,459,368
1762315,358,458,366
1762316,357,458,367
1762317,358,458,367
1762318,359,458,367
1762319,360,458,370
1762320,358,458,369
1762321,360,458,369
1762322,361,458,370
1762323,360,459,371
1762324,360,458,370
1762325,360,459,370
1762326,359,459,371
1762327,360,460,369
1762328,360,458,367
1762329,359,460,368
1762330,360,459,368
1762331,359,458,369
1762332,359,460,368
1762333,359,460,369
1762334,359,458,368
1762335,357,458,367
1762336,358,457,367
1762337,359,458,367
1762338,358,457,369
1762339,357,459,368
1762340,358,458,368
1762341,358,458,369
1762342,359,458,369
1762343,360,460,371
1762344,359,460,369
1762345,358,459,369
1762346,357,459,369
1762347,360,457,368
1762348,359,458,368
1762349,358,458,369
1762350,359,460,368
1762351,359,459,367
1762352,359,457,370
1762353,359,456,368
1762354,359,457,367
1762355,359,458,367
1762356,357,457,367
1762357,359,457,367
1762358,358,456,367
1762359,359,456,369
1762360,359,458,368
1762361,359,458,368
1762362,358,460,368
1762363,359,459,369
1762364,359,459,367
1762365,360,459,370
1762366,359,460,369
1762367,359,459,368
1762368,359,459,367
1762369,359,457,369
1762370,358,459,368
1762371,360,456,367
1762372,359,458,367
1762373,356,458,367
1762374,358,456,366
1762375,358,457,366
1762376,359,455,367
1762377,357,455,367
1762378,358,458,366
1762379,358,458,368
1762380,358,456,369
1762381,359,458,369
1762382,359,458,369
1762383,361,457,369
1762384,361,458,369
1762385,359,459,370
1762386,360,457,368
1762387,358,459,369
1762388,359,460,368
1762389,358,460,367
1762390,358,459,369
1762391,359,459,367
1762392,359,459,368
1762393,358,459,368
1762394,357,458,367
1762395,359,457,365
1762396,358,457,368
1762397,359,458,368
1762398,358,457,368
1762399,360,458,369
1762400,358,457,369
1762401,360,457,367
1762402,360,457,370
1762403,360,457,369
1762404,361,457,369
1762405,360,459,369
1762406,359,459,369
1762407,360,459,369
1762408,359,460,369
1762409,358,459,367
1762410,357,460,366
1762411,357,460,366
1762412,355,458,366
1762413,358,460,366
1762414,359,459,367
1762415,357,459,368
1762416,358,456,368
1762417,357,456,367
1762418,359,457,369
1762419,358,457,369
1762420,360,455,368
1762421,360,458,370
1762422,360,457,369
1762423,360,457,370
1762424,360,458,369
1762425,360,459,369
1762426,358,459,369
1762427,359,459,370
1762428,359,459,368
1762429,359,460,368
1762430,358,459,368
1762431,359,456,370
1762432,357,457,367
1762433,357,457,367
1762434,358,458,368
1762435,357,458,367
1762436,358,458,368
1762437,358,457,367
1762438,358,455,367
1762439,358,455,368
1762440,359,457,368
1762441,360,458,370
1762442,359,457,369
1762443,360,457,369
1762444,360,459,370
1762445,360,459,370
1762446,360,461,369
1762447,359,460,369
1762448,360,461,369
1762449,360,458,369
1762450,360,458,368
1762451,357,459,367
1762452,357,459,366
1762453,358,455,366
1762454,359,457,368
1762455,357,457,368
1762456,359,457,369
1762457,358,455,367
1762458,358,458,367
1762459,358,455,367
1762460,360,457,369
1762461,359,455,368
1762462,358,457,369
1762463,360,459,370
1762464,360,457,369
1762465,360,457,369
1762466,360,458,370
1762467,359,457,369
1762468,360,460,368
1762469,360,460,370
1762470,359,460,369
1762471,358,457,367
1762472,358,458,368
1762473,359,460,367
1762474,360,458,368
1762475,358,458,368
1762476,358,458,368
1762477,360,457,367
1762478,359,458,368
1762479,359,459,368
1762480,358,459,370
1762481,360,458,369
1762482,359,459,369
1762483,360,457,370
1762484,359,460,369
1762485,360,460,370
1762486,359,460,370
1762487,359,460,368
1762488,361,459,369
1762489,359,460,367
1762490,358,460,368
1762491,359,460,368
1762492,357,459,366
1762493,358,460,367
1762494,358,458,366
1762495,358,459,368
1762496,360,456,367
1762497,360,457,368
1762498,359,457,369
1762499,359,457,369
1762500,361,458,369
1762501,361,459,369
1762502,360,458,371
1762503,360,457,370
1762504,360,460,370
1762505,359,459,369
1762506,360,457,370
1762507,359,459,368
1762508,359,460,368
1762509,357,460,367
1762510,359,460,369
1762511,359,459,367
1762512,358,459,368
1762513,357,460,367
1762514,358,458,367
1762515,359,457,367
1762516,358,457,369
1762517,359,457,368
1762518,359,459,369
1762519,358,458,369
1762520,360,458,369
1762521,358,457,371
1762522,359,458,371
1762523,360,459,368
1762524,360,458,370
1762525,361,457,369
1762526,359,459,370
1762527,362,460,370
1762528,361,460,370
1762529,360,460,370
1762530,359,459,369
1762531,357,458,368
1762532,358,460,367
1762533,359,459,367
1762534,359,459,368
1762535,359,455,368
1762536,357,457,368
1762537,358,458,368
1762538,359,456,369
1762539,359,458,368
1762540,359,458,369
1762541,359,458,369
1762542,359,459,371
1762543,359,458,371
1762544,360,458,370
1762545,360,459,370
1762546,359,460,370
1762547,359,460,369
1762548,359,461,369
1762549,359,459,369
1762550,359,459,368
1762551,357,460,369
1762552,360,456,368
1762553,360,456,367
1762554,359,457,368
1762555,359,457,367
1762556,358,458,366
1762557,357,458,368
1762558,359,458,368
1762559,360,459,368
1762560,361,457,369
1762561,359,456,370
1762562,359,458,369
1762563,360,458,369
1762564,357,458,368
1762565,359,459,370
1762566,358,459,369
1762567,358,458,370
1762568,359,461,368
1762569,359,460,367
1762570,359,459,368
1762571,358,459,367
1762572,358,462,368
1762573,359,458,367
1762574,357,455,367
1762575,359,456,367
1762576,359,457,368
1762577,357,457,369
1762578,358,457,367
1762579,359,456,369
1762580,360,459,368
1762581,359,458,370
1762582,359,459,370
1762583,359,455,369
1762584,360,458,370
1762585,358,460,370
1762586,360,460,370
1762587,358,460,369
1762588,359,462,369
1762589,359,461,368
1762590,359,459,368
1762591,358,458,369
1762592,359,457,368
1762593,357,458,367
1762594,359,460,366
1762595,359,458,368
1762596,358,458,368
1762597,359,457,368
1762598,359,457,368
1762599,358,457,369
1762600,359,459,369
1762601,359,458,368
1762602,360,458,370
1762603,359,459,370
1762604,360,460,369
1762605,360,460,369
1762606,359,460,369
1762607,360,461,370
1762608,360,460,369
1762609,360,459,369
1762610,358,460,367
1762611,358,460,368
1762612,359,460,368
1762613,357,459,368
1762614,357,458,368
1762615,358,458,367
1762616,359,458,369
1762617,359,456,368
1762618,358,455,368
1762619,359,457,370
1762620,358,457,369
1762621,358,458,369
1762622,360,459,369
1762623,359,458,369
1762624,360,459,369
1762625,360,461,369
1762626,361,458,370
1762627,360,461,369
1762628,359,459,369
1762629,360,459,368
1762630,360,460,367
1762631,360,459,367
1762632,358,459,367
1762633,357,458,368
1762634,357,458,367
1762635,358,458,368
1762636,358,458,368
1762637,358,457,368
1762638,359,458,368
1762639,359,457,368
1762640,360,457,368
1762641,362,456,370
1762642,358,458,369
1762643,360,456,369
1762644,360,460,370
1762645,360,459,368
1762646,359,460,369
1762647,360,459,370
1762648,359,459,369
1762649,360,460,368
1762650,360,461,367
1762651,358,458,367
1762652,359,460,367
1762653,359,455,369
1762654,358,457,367
1762655,358,457,367
1762656,358,458,367
1762657,358,458,368
1762658,359,459,368
1762659,359,458,367
1762660,357,458,369
1762661,358,455,369
1762662,358,458,368
1762663,359,458,371
1762664,359,460,369
1762665,358,460,369
1762666,360,461,369
1762667,360,458,368
1762668,358,460,369
1762669,359,460,367
1762670,359,460,368
1762671,360,458,367
1762672,359,459,366
1762673,359,458,367
1762674,359,456,367
1762675,359,459,367
1762676,359,457,368
1762677,360,458,367
1762678,359,456,369
1762679,360,457,368
1762680,359,458,369
1762681,358,455,368
1762682,360,457,370
1762683,359,459,370
1762684,359,459,369
1762685,361,457,370
1762686,360,460,370
1762687,361,461,370
1762688,360,458,368
1762689,360,458,368
1762690,360,459,368
1762691,358,460,367
1762692,359,457,367
1762693,359,458,368
1762694,358,459,367
1762695,357,459,367
1762696,359,455,367
1762697,359,456,367
1762698,358,458,367
1762699,357,461,368
1762700,359,459,369
1762701,359,458,370
1762702,359,457,370
1762703,359,459,369
1762704,359,459,370
1762705,359,460,370
1762706,361,459,368
1762707,360,459,369
1762708,359,459,368
1762709,359,458,369
1762710,359,460,368
1762711,359,459,368
1762712,360,456,368
1762713,359,455,368
1762714,359,458,368
1762715,359,457,369
1762716,356,457,368
1762717,358,458,367
1762718,358,457,369
1762719,357,457,370
1762720,360,458,369
1762721,359,458,369
1762722,358,458,369
1762723,360,459,369
1762724,360,459,370
1762725,361,459,371
1762726,360,460,369
1762727,359,458,370
1762728,359,459,368
1762729,360,461,369
1762730,359,459,369
1762731,359,457,368
1762732,360,458,367
1762733,358,459,367
1762734,358,458,368
1762735,359,458,368
1762736,358,455,368
1762737,360,460,368
1762738,359,459,368
1762739,359,458,368
1762740,357,458,369
1762741,361,458,369
1762742,358,460,368
1762743,360,456,369
1762744,359,458,370
1762745,359,460,369
1762746,359,460,369
1762747,359,461,370
1762748,359,458,369
1762749,360,462,368
1762750,358,460,368
1762751,359,458,367
1762752,357,458,366
1762753,358,459,367
1762754,358,462,368
1762755,358,459,368
1762756,359,457,368
1762757,358,457,367
1762758,358,458,368
1762759,359,458,368
1762760,359,458,369
1762761,361,457,370
1762762,358,459,369
1762763,360,460,369
1762764,360,461,369
1762765,361,462,369
1762766,360,460,369
1762767,359,460,369
1762768,359,460,369
1762769,359,459,369
1762770,359,460,368
1762771,359,460,368
1762772,358,458,367
1762773,359,458,368
1762774,358,456,368
1762775,358,458,368
1762776,359,459,368
1762777,359,458,368
1762778,359,457,368
1762779,359,460,368
1762780,360,458,370
1762781,361,459,367
1762782,359,460,369
1762783,360,458,368
1762784,361,459,369
1762785,360,460,370
1762786,360,461,371
1762787,362,459,369
1762788,359,460,369
1762789,358,462,368
1762790,358,459,368
1762791,360,458,367
1762792,359,459,367
1762793,358,459,368
1762794,358,455,369
1762795,359,456,368
1762796,360,455,368
1762797,359,458,368
1762798,359,457,369
1762799,360,459,369
1762800,360,457,369
1762801,359,458,370
1762802,360,456,369
1762803,360,458,369
1762804,361,459,371
1762805,360,457,369
1762806,361,459,370
1762807,361,461,370
1762808,360,457,368
1762809,359,460,368
1762810,359,459,368
1762811,358,458,367
1762812,358,460,368
1762813,358,459,366
1762814,358,458,365
1762815,357,458,367
1762816,359,459,367
1762817,359,456,370
1762818,358,458,369
1762819,360,458,369
1762820,358,457,368
1762821,359,458,369
1762822,359,460,370
1762823,360,458,369
1762824,359,460,368
1762825,360,461,370
1762826,360,458,370
1762827,360,459,369
1762828,360,461,369
1762829,360,458,369
1762830,358,461,367
1762831,358,460,367
1762832,359,459,368
1762833,359,459,367
1762834,358,460,367
1762835,360,456,368
1762836,358,459,368
1762837,359,454,368
1762838,358,457,369
1762839,360,459,368
1762840,359,459,370
1762841,358,459,371
1762842,359,460,370
1762843,361,460,371
1762844,360,459,369
1762845,361,459,370
1762846,362,464,371
1762847,360,460,370
1762848,360,460,370
1762849,361,460,370
1762850,360,458,368
1762851,360,456,369
1762852,360,458,368
1762853,359,458,368
1762854,359,459,367
1762855,358,458,369
1762856,359,458,369
1762857,357,458,367
1762858,357,459,368
1762859,358,459,368
1762860,359,459,369
1762861,359,459,370
1762862,360,460,369
1762863,361,460,369
1762864,359,461,370
1762865,360,461,370
1762866,359,461,369
1762867,359,461,370
1762868,361,460,370
1762869,359,460,369
1762870,359,459,368
1762871,359,461,369
1762872,360,459,370
1762873,358,460,367
1762874,359,457,369
1762875,360,460,369
1762876,360,458,368
1762877,359,461,369
1762878,359,459,368
1762879,360,460,369
1762880,361,460,370
1762881,361,461,370
1762882,362,460,371
1762883,362,459,371
1762884,361,459,370
1762885,362,459,370
1762886,359,459,371
1762887,362,460,371
1762888,360,462,369
1762889,362,460,370
1762890,361,461,369
1762891,360,457,369
1762892,359,459,369
1762893,359,459,368
1762894,359,460,369
1762895,360,458,368
1762896,361,459,368
1762897,360,460,369
1762898,360,458,369
1762899,360,459,371
1762900,361,459,371
1762901,361,459,370
1762902,362,460,370
1762903,362,460,370
1762904,362,460,371
1762905,361,460,371
1762906,361,461,370
1762907,361,462,369
1762908,359,459,369
1762909,359,462,368
1762910,358,460,368
1762911,358,460,368
1762912,359,460,368
1762913,358,461,368
1762914,358,460,366
1762915,359,459,368
1762916,358,460,369
1762917,360,461,369
1762918,360,458,370
1762919,361,460,370
1762920,361,460,370
1762921,362,461,369
1762922,361,458,370
1762923,361,461,371
1762924,362,462,371
1762925,360,460,372
1762926,359,461,370
1762927,359,462,371
1762928,361,461,372
1762929,360,462,370
1762930,361,464,368
1762931,360,460,368
1762932,359,460,368
1762933,358,460,368
1762934,360,456,368
1762935,359,457,368
1762936,359,458,369
1762937,359,458,369
1762938,359,456,369
1762939,360,461,370
1762940,360,460,370
1762941,361,457,370
1762942,360,460,370
1762943,361,460,370
1762944,361,459,371
1762945,362,461,370
1762946,359,459,370
1762947,360,460,371
1762948,360,460,369
1762949,359,461,370
1762950,360,460,368
1762951,358,460,368
1762952,360,461,368
1762953,359,457,369
1762954,359,457,368
1762955,358,459,369
1762956,360,457,368
1762957,358,459,369
1762958,359,455,370
1762959,360,459,370
1762960,360,457,370
1762961,360,460,370
1762962,360,458,370
1762963,360,460,370
1762964,360,460,369
1762965,361,462,370
1762966,361,460,371
1762967,361,462,370
1762968,361,459,371
1762969,360,461,368
1762970,360,460,370
1762971,360,460,369
1762972,360,460,369
1762973,360,456,367
1762974,359,459,368
1762975,359,455,367
1762976,360,459,369
1762977,360,459,368
1762978,358,459,369
1762979,358,459,367
1762980,359,459,369
1762981,360,459,371
1762982,360,458,369
1762983,362,460,370
1762984,360,461,369
1762985,360,461,369
1762986,361,461,369
1762987,360,461,370
1762988,360,460,369
1762989,361,458,369
1762990,359,460,370
1762991,360,460,369
1762992,359,459,368
1762993,360,459,367
1762994,357,459,367
1762995,359,459,367
1762996,358,458,368
1762997,358,458,369
1762998,359,459,367
1762999,358,460,368
1763000,360,459,369
1763001,360,459,370
1763002,360,460,370
1763003,361,460,370
1763004,361,461,370
1763005,360,460,370
1763006,361,461,371
1763007,360,461,369
1763008,359,460,369
1763009,360,458,369
1763010,359,460,368
1763011,360,461,368
1763012,359,460,369
1763013,360,457,370
1763014,359,459,368
1763015,359,460,369
1763016,360,459,368
1763017,359,460,369
1763018,360,458,368
1763019,359,460,369
1763020,360,458,368
1763021,360,457,369
1763022,361,459,372
1763023,361,458,370
1763024,360,459,369
1763025,360,458,369
1763026,360,460,370
1763027,359,461,369
1763028,359,459,371
1763029,360,460,369
1763030,359,461,369
1763031,359,459,368
1763032,359,459,368
1763033,358,459,369
1763034,358,458,367
1763035,358,458,368
1763036,359,459,369
1763037,360,459,368
1763038,359,456,369
1763039,360,459,369
1763040,360,460,368
1763041,360,460,369
1763042,360,459,371
1763043,361,459,370
1763044,360,458,370
1763045,359,462,371
1763046,359,461,370
1763047,361,457,369
1763048,361,461,370
1763049,359,460,368
1763050,358,461,369
1763051,361,458,367
1763052,360,459,367
1763053,359,457,367
1763054,359,460,368
1763055,358,458,366
1763056,360,456,369
1763057,359,455,369
1763058,360,457,368
1763059,360,456,369
1763060,359,460,370
1763061,361,460,369
1763062,360,460,370
1763063,360,459,370
1763064,363,461,370
1763065,361,459,371
1763066,361,459,371
1763067,360,460,369
1763068,359,461,369
1763069,360,460,369
1763070,361,458,370
1763071,360,457,368
1763072,359,457,366
1763073,359,460,369
1763074,359,460,369
1763075,360,459,368
1763076,359,459,370
1763077,359,459,368
1763078,360,456,368
1763079,360,456,369
1763080,359,457,369
1763081,361,458,368
1763082,360,460,369
1763083,360,459,371
1763084,360,460,369
1763085,361,461,372
1763086,360,460,372
1763087,360,461,368
1763088,360,457,370
1763089,360,457,369
1763090,359,460,368
1763091,360,460,367
1763092,359,460,368
1763093,359,455,368
1763094,358,460,367
1763095,360,459,369
1763096,360,456,367
1763097,359,457,369
1763098,359,459,369
1763099,360,457,369
1763100,360,459,371
1763101,360,459,370
1763102,360,458,370
1763103,362,459,370
1763104,361,458,371
1763105,361,456,370
1763106,361,457,370
1763107,361,462,369
1763108,360,459,370
1763109,361,461,369
1763110,359,459,370
1763111,360,459,370
1763112,359,460,367
1763113,358,457,368
1763114,358,462,368
1763115,358,457,367
1763116,358,459,368
1763117,358,458,369
1763118,358,459,368
1763119,360,460,370
1763120,359,458,369
1763121,361,458,370
1763122,360,460,369
1763123,361,460,370
1763124,361,460,371
1763125,361,459,371
1763126,359,460,369
1763127,360,460,370
1763128,360,461,369
1763129,359,460,369
1763130,359,460,369
1763131,358,460,369
1763132,359,460,370
1763133,359,458,369
1763134,359,457,368
1763135,359,456,369
1763136,359,458,369
1763137,358,459,369
1763138,359,459,369
1763139,360,458,369
1763140,360,458,369
1763141,360,459,370
1763142,359,456,369
1763143,361,460,370
1763144,360,459,370
1763145,360,460,369
1763146,360,457,371
1763147,360,459,369
1763148,359,458,369
1763149,359,461,368
1763150,359,459,368
1763151,359,460,368
1763152,359,459,368
1763153,358,460,368
1763154,358,460,367
1763155,359,458,367
1763156,360,457,369
1763157,359,459,369
1763158,359,458,369
1763159,359,458,369
1763160,360,459,370
1763161,361,460,370
1763162,359,460,371
1763163,359,460,369
1763164,359,461,370
1763165,360,460,371
1763166,361,461,370
1763167,361,459,370
1763168,361,460,369
1763169,359,460,368
1763170,358,459,368
1763171,359,459,367
1763172,358,458,367
1763173,358,459,367
1763174,360,459,368
1763175,357,460,367
1763176,360,458,369
1763177,359,457,370
1763178,359,456,368
1763179,360,456,368
1763180,360,457,368
1763181,358,459,370
1763182,360,457,370
1763183,360,457,369
1763184,360,460,371
1763185,359,459,370
1763186,358,464,369
1763187,360,460,370
1763188,357,459,368
1763189,359,457,368
1763190,359,460,367
1763191,359,461,368
1763192,359,459,367
1763193,357,459,368
1763194,358,458,367
1763195,358,456,367
1763196,359,457,367
1763197,360,457,367
1763198,359,457,369
1763199,361,459,369
1763200,359,458,369
1763201,359,460,370
1763202,359,460,369
1763203,359,460,370
1763204,362,461,368
1763205,360,460,369
1763206,362,462,370
1763207,360,462,368
1763208,360,460,369
1763209,359,460,367
1763210,358,461,367
1763211,359,460,367
1763212,359,461,367
1763213,359,459,368
1763214,359,459,368
1763215,359,456,367
1763216,358,458,369
1763217,360,458,368
1763218,361,460,369
1763219,359,459,370
1763220,360,460,369
1763221,360,457,370
1763222,361,458,369
1763223,361,459,370
1763224,360,460,370
1763225,361,459,371
1763226,361,460,370
1763227,360,460,370
1763228,360,461,369
1763229,360,461,370
1763230,359,460,368
1763231,359,460,367
1763232,358,459,368
1763233,360,459,369
1763234,358,461,369
1763235,359,459,369
1763236,361,459,368
1763237,360,459,367
1763238,359,459,369
1763239,359,459,369
1763240,361,460,370
1763241,360,460,370
1763242,360,457,371
1763243,361,459,372
1763244,361,459,370
1763245,362,459,370
1763246,360,460,371
1763247,361,462,371
1763248,362,463,371
1763249,360,461,370
1763250,360,461,369
1763251,359,462,369
1763252,359,460,368
1763253,359,460,369
1763254,359,458,369
1763255,360,459,368
1763256,360,460,369
1763257,360,463,369
1763258,360,460,370
1763259,361,460,371
1763260,362,460,370
1763261,361,460,371
1763262,362,460,372
1763263,363,462,371
1763264,361,461,371
1763265,361,460,370
1763266,361,458,370
1763267,361,458,371
1763268,361,460,371
1763269,361,461,369
1763270,362,460,370
1763271,360,461,369
1763272,360,463,370
1763273,358,461,368
1763274,360,460,368
1763275,360,461,369
1763276,359,459,370
1763277,360,456,369
1763278,361,457,371
1763279,362,457,371
1763280,361,460,371
1763281,362,460,371
1763282,361,461,371
1763283,362,461,371
1763284,361,462,371
1763285,361,459,370
1763286,362,463,371
1763287,362,462,370
1763288,362,462,369
1763289,361,462,371
1763290,361,460,370
1763291,360,460,369
1763292,359,462,370
1763293,361,460,369
1763294,361,459,370
1763295,361,459,369
1763296,360,458,369
1763297,360,460,370
1763298,361,461,370
1763299,361,459,370
1763300,359,461,371
1763301,360,460,369
1763302,361,461,371
1763303,361,462,372
1763304,361,461,372
1763305,362,462,373
1763306,361,462,372
1763307,364,461,372
1763308,361,462,370
1763309,362,461,371
1763310,360,462,370
1763311,361,462,369
1763312,360,460,368
1763313,358,461,369
1763314,358,462,368
1763315,359,462,369
1763316,360,460,370
1763317,360,462,369
1763318,358,459,368
1763319,360,459,369
1763320,360,460,371
1763321,359,461,372
1763322,361,462,371
1763323,362,461,371
1763324,362,460,371
1763325,362,460,370
1763326,361,462,372
1763327,362,461,371
1763328,362,462,370
1763329,361,462,370
1763330,361,462,370
1763331,362,461,370
1763332,360,459,370
1763333,360,461,369
1763334,359,460,370
1763335,360,460,368
1763336,359,460,368
1763337,361,460,369
1763338,361,460,369
1763339,361,460,370
1763340,362,462,372
1763341,362,458,371
1763342,362,460,372
1763343,361,461,371
1763344,360,462,372
1763345,362,462,371
1763346,363,463,371
1763347,362,464,370
1763348,361,459,371
1763349,360,459,370
1763350,359,462,369
1763351,360,461,369
1763352,360,461,368
1763353,359,460,369
1763354,360,460,368
1763355,359,461,370
1763356,360,458,370
1763357,360,460,369
1763358,359,460,370
1763359,361,458,370
1763360,360,460,370
1763361,362,462,373
1763362,361,460,371
1763363,362,460,371
1763364,361,462,371
1763365,361,461,371
1763366,361,462,370
1763367,360,461,372
1763368,361,462,371
1763369,361,461,370
1763370,359,462,370
1763371,359,460,370
1763372,359,460,367
1763373,359,460,368
1763374,358,461,368
1763375,358,459,368
1763376,358,459,369
1763377,360,460,370
1763378,361,459,369
1763379,361,459,370
1763380,360,459,371
1763381,362,460,371
1763382,362,459,371
1763383,361,460,370
1763384,361,459,371
1763385,362,460,372
1763386,361,458,371
1763387,362,460,370
1763388,361,460,371
1763389,361,462,370
1763390,360,461,370
1763391,360,462,369
1763392,361,462,369
1763393,359,460,370
1763394,360,456,370
1763395,361,459,369
1763396,359,457,369
1763397,360,458,369
1763398,359,459,371
1763399,361,460,371
1763400,360,460,371
1763401,359,459,370
1763402,362,460,371
1763403,361,460,372
1763404,362,462,371
1763405,362,458,371
1763406,361,461,371
1763407,361,461,370
1763408,362,461,369
1763409,360,461,370
1763410,361,460,369
1763411,361,457,368
1763412,358,459,368
1763413,358,459,368
1763414,358,460,368
1763415,359,459,368
1763416,360,459,368
1763417,358,459,368
1763418,358,460,368
1763419,359,460,370
1763420,360,460,369
1763421,359,457,371
1763422,361,460,371
1763423,361,460,371
1763424,362,461,371
1763425,362,461,369
1763426,360,462,371
1763427,359,461,370
1763428,359,461,369
1763429,360,461,369
1763430,359,463,367
1763431,361,459,369
1763432,360,458,368
1763433,361,460,367
1763434,359,460,366
1763435,360,460,368
1763436,360,459,370
1763437,359,458,369
1763438,359,455,369
1763439,359,455,370
1763440,360,458,370
1763441,361,457,370
1763442,360,459,371
1763443,362,460,371
1763444,360,461,370
1763445,360,459,371
1763446,361,461,371
1763447,359,460,369
1763448,360,461,369
1763449,361,458,370
1763450,360,460,369
1763451,359,458,369
1763452,359,457,369
1763453,359,460,368
1763454,357,458,368
1763455,360,458,368
1763456,360,459,370
1763457,358,458,369
1763458,358,458,368
1763459,359,459,370
1763460,359,460,370
1763461,359,459,370
1763462,360,459,369
1763463,360,457,371
1763464,360,460,369
1763465,360,460,370
1763466,360,460,370
1763467,361,461,370
1763468,360,462,368
1763469,360,459,370
1763470,360,460,369
1763471,360,459,369
1763472,358,459,368
1763473,358,459,368
1763474,360,458,368
1763475,358,458,368
1763476,358,459,370
1763477,359,459,369
1763478,359,458,370
1763479,358,460,370
1763480,360,459,371
1763481,358,460,369
1763482,361,461,370
1763483,360,460,371
1763484,360,462,369
1763485,360,461,372
1763486,360,459,370
1763487,360,460,371
1763488,359,462,370
1763489,360,460,370
1763490,359,461,369
1763491,357,461,367
1763492,358,460,367
1763493,358,460,366
1763494,358,460,367
1763495,359,460,369
1763496,359,458,367
1763497,360,458,370
1763498,358,459,369
1763499,360,460,369
1763500,360,459,371
1763501,361,460,370
1763502,362,459,371
1763503,362,457,370
1763504,359,461,371
1763505,360,460,369
1763506,360,461,369
1763507,359,461,369
1763508,360,460,370
1763509,360,461,371
1763510,359,459,368
1763511,359,462,368
1763512,359,460,368
1763513,359,460,367
1763514,358,460,367
1763515,360,460,368
1763516,358,458,369
1763517,358,457,369
1763518,360,459,370
1763519,360,458,369
1763520,361,460,370
1763521,361,461,371
1763522,361,460,371
1763523,359,460,371
1763524,360,460,371
1763525,361,460,372
1763526,360,461,370
1763527,360,459,370
1763528,359,460,369
1763529,360,461,370
1763530,359,460,369
1763531,360,459,368
1763532,360,460,369
1763533,360,459,368
1763534,360,460,370
1763535,359,456,370
1763536,360,458,368
1763537,360,460,368
1763538,359,458,370
1763539,361,458,370
1763540,362,460,370
1763541,360,460,371
1763542,361,459,371
1763543,361,461,370
1763544,359,460,372
1763545,360,458,370
1763546,360,459,370
1763547,362,462,369
1763548,360,458,369
1763549,361,460,369
1763550,359,459,369
1763551,362,460,369
1763552,359,460,369
1763553,360,460,369
1763554,358,457,368
1763555,360,459,368
1763556,360,458,369
1763557,359,457,369
1763558,361,460,369
1763559,359,459,370
1763560,360,459,370
1763561,360,461,370
1763562,361,459,370
1763563,362,460,370
1763564,362,459,370
1763565,362,462,371
1763566,361,461,370
1763567,360,461,369
1763568,361,461,370
1763569,360,461,369
1763570,360,461,368
1763571,359,461,369
1763572,358,460,369
1763573,358,460,368
1763574,360,458,368
1763575,360,460,368
1763576,360,460,370
1763577,360,459,369
1763578,359,459,371
1763579,359,462,369
1763580,360,460,368
1763581,360,460,371
1763582,362,460,371
1763583,361,460,371
1763584,361,461,370
1763585,361,461,371
1763586,360,461,370
1763587,360,462,370
1763588,359,461,370
1763589,359,462,369
1763590,360,461,369
1763591,360,463,371
1763592,360,460,370
1763593,359,460,369
1763594,359,458,370
1763595,359,459,370
1763596,360,456,368
1763597,362,459,370
1763598,359,457,370
1763599,360,460,369
1763600,359,460,370
1763601,361,461,371
1763602,360,460,371
1763603,361,461,370
1763604,362,462,371
1763605,361,462,370
1763606,361,459,371
1763607,360,461,370
1763608,361,462,371
1763609,360,460,370
1763610,360,459,369
1763611,359,461,371
1763612,361,459,370
1763613,360,458,369
1763614,360,460,368
1763615,359,460,369
1763616,360,461,369
1763617,361,460,370
1763618,358,459,370
1763619,361,460,370
1763620,360,457,372
1763621,361,460,372
1763622,361,459,371
1763623,361,457,372
1763624,361,460,373
1763625,362,460,370
1763626,359,462,371
1763627,361,461,370
1763628,361,460,371
1763629,360,461,370
1763630,360,458,370
1763631,360,457,368
1763632,358,458,368
1763633,360,459,369
1763634,359,457,368
1763635,359,460,368
1763636,361,460,369
1763637,360,458,369
1763638,360,459,371
1763639,359,460,370
1763640,359,460,370
1763641,361,461,370
1763642,362,458,370
1763643,361,461,371
1763644,360,461,369
1763645,359,462,369
1763646,359,460,370
1763647,360,462,370
1763648,361,461,370
1763649,360,460,368
1763650,359,460,369
1763651,357,461,369
1763652,358,460,369
1763653,357,461,367
1763654,359,460,367
1763655,358,458,368
1763656,359,458,368
1763657,359,456,369
1763658,359,460,370
1763659,359,455,370
1763660,361,460,371
1763661,360,460,370
1763662,361,459,371
1763663,362,462,371
1763664,362,461,372
1763665,361,461,371
1763666,361,461,370
1763667,361,461,371
1763668,360,462,370
1763669,360,461,370
1763670,358,462,370
1763671,359,461,369
1763672,360,461,369
1763673,359,461,369
1763674,358,461,370
1763675,360,458,370
1763676,360,458,370
1763677,360,460,369
1763678,361,460,370
1763679,359,460,368
1763680,361,460,371
1763681,361,460,372
1763682,361,461,371
1763683,360,460,372
1763684,362,462,371
1763685,362,461,372
1763686,362,462,372
1763687,361,462,371
1763688,362,462,371
1763689,362,462,371
1763690,360,461,369
1763691,359,462,368
1763692,358,460,370
1763693,360,461,367
1763694,359,460,368
1763695,360,459,367
1763696,359,459,368
1763697,359,460,369
1763698,360,458,370
1763699,360,462,370
1763700,362,461,371
1763701,361,458,370
1763702,363,461,372
1763703,361,461,372
1763704,361,462,371
1763705,360,463,369
1763706,360,461,371
1763707,361,462,370
1763708,361,462,370
1763709,360,461,369
1763710,360,461,369
1763711,360,461,369
1763712,359,460,368
1763713,362,459,369
1763714,360,460,367
1763715,359,459,368
1763716,360,460,368
1763717,360,460,370
1763718,360,460,371
1763719,361,460,370
1763720,362,460,371
1763721,361,461,371
1763722,361,461,371
1763723,361,461,371
1763724,361,460,372
1763725,361,459,372
1763726,361,460,371
1763727,361,460,370
1763728,361,462,372
1763729,360,462,370
1763730,362,461,370
1763731,359,460,368
1763732,361,461,370
1763733,359,461,369
1763734,361,460,369
1763735,360,457,370
1763736,360,459,369
1763737,360,459,371
1763738,361,461,371
1763739,361,459,371
1763740,361,460,371
1763741,362,460,371
1763742,362,460,370
1763743,362,459,371
1763744,362,459,372
1763745,362,460,371
1763746,361,462,370
1763747,363,461,371
1763748,361,461,370
1763749,360,462,371
1763750,361,461,369
1763751,360,460,370
1763752,360,460,370
1763753,359,456,367
1763754,361,460,369
1763755,359,461,369
1763756,360,460,369
1763757,360,460,370
1763758,359,460,371
1763759,360,461,370
1763760,360,459,371
1763761,361,459,371
1763762,361,461,370
1763763,362,462,371
1763764,361,460,371
1763765,362,462,372
1763766,362,462,370
1763767,361,461,370
1763768,359,461,369
1763769,360,461,371
1763770,360,460,370
1763771,359,461,369
1763772,359,460,368
1763773,360,460,369
1763774,359,460,369
1763775,360,459,369
1763776,360,460,369
1763777,360,460,369
1763778,360,460,369
1763779,362,460,370
1763780,361,461,371
1763781,361,461,371
1763782,361,457,370
1763783,361,461,371
1763784,361,462,371
1763785,361,460,371
1763786,362,459,371
1763787,360,458,370
1763788,362,459,370
1763789,359,459,370
1763790,362,458,369
1763791,360,461,370
1763792,361,459,368
1763793,360,460,368
1763794,360,460,369
1763795,360,459,369
1763796,360,459,369
1763797,360,458,370
1763798,360,460,369
1763799,361,460,369
1763800,361,458,369
1763801,361,460,372
1763802,361,459,372
1763803,361,460,370
1763804,362,461,370
1763805,360,462,370
1763806,361,461,369
1763807,361,461,371
1763808,361,461,370
1763809,361,460,369
1763810,360,462,369
1763811,361,462,367
1763812,360,461,370
1763813,360,458,369
1763814,360,458,370
1763815,360,459,369
1763816,360,459,369
1763817,359,457,371
1763818,360,458,370
1763819,360,459,370
1763820,361,461,371
1763821,362,462,371
1763822,362,461,370
1763823,361,461,370
1763824,362,462,371
1763825,361,461,370
1763826,361,462,371
1763827,360,461,371
1763828,362,461,369
1763829,361,462,370
1763830,361,459,369
1763831,361,462,370
1763832,360,461,368
1763833,361,460,369
1763834,360,460,369
1763835,360,460,369
1763836,362,459,369
1763837,361,458,369
1763838,361,460,370
1763839,360,460,371
1763840,360,458,372
1763841,361,461,370
1763842,360,460,372
1763843,361,460,371
1763844,361,461,372
1763845,360,461,370
1763846,360,461,369
1763847,361,461,369
1763848,361,461,368
1763849,361,459,369
1763850,361,460,370
1763851,360,458,368
1763852,360,460,370
1763853,359,459,368
1763854,360,458,368
1763855,360,460,369
1763856,359,458,370
1763857,360,456,369
1763858,360,460,372
1763859,360,460,370
1763860,361,461,370
1763861,361,461,370
1763862,361,460,372
1763863,360,460,369
1763864,361,462,370
1763865,362,461,369
1763866,359,460,368
1763867,358,460,370
1763868,360,460,370
1763869,358,461,369
1763870,360,460,368
1763871,360,457,368
1763872,360,458,369
1763873,359,459,370
1763874,360,460,368
1763875,359,458,368
1763876,360,459,369
1763877,358,460,368
1763878,359,460,369
1763879,361,459,370
1763880,360,458,370
1763881,360,457,370
1763882,361,459,371
1763883,361,458,369
1763884,362,459,370
1763885,362,461,369
1763886,360,460,371
1763887,360,460,370
1763888,361,460,369
1763889,360,460,368
1763890,360,457,368
1763891,359,460,370
1763892,360,459,369
1763893,360,460,368
1763894,359,457,368
1763895,359,459,369
1763896,359,458,370
1763897,359,457,369
1763898,360,459,369
1763899,360,458,370
1763900,361,455,370
1763901,360,458,371
1763902,360,459,369
1763903,359,459,370
1763904,360,461,371
1763905,359,461,369
1763906,360,459,370
1763907,360,459,369
1763908,360,457,369
1763909,360,459,368
1763910,359,461,369
1763911,360,459,369
1763912,359,459,370
1763913,359,458,369
1763914,359,456,370
1763915,359,455,368
1763916,359,456,367
1763917,359,458,368
1763918,360,457,369
1763919,361,459,370
1763920,360,456,370
1763921,360,458,370
1763922,360,459,370
1763923,362,457,371
1763924,361,459,371
1763925,360,459,371
1763926,361,461,371
1763927,360,460,371
1763928,360,460,372
1763929,361,461,369
1763930,360,457,368
1763931,360,460,370
1763932,360,460,369
1763933,359,459,370
1763934,360,458,368
1763935,361,456,370
1763936,359,461,368
1763937,361,460,370
1763938,359,458,370
1763939,359,458,370
1763940,360,458,370
1763941,359,462,372
1763942,361,460,370
1763943,361,458,371
1763944,362,459,371
1763945,361,461,370
1763946,361,460,369
1763947,361,459,369
1763948,361,460,369
1763949,360,457,368
1763950,360,460,369
1763951,359,460,369
1763952,359,461,368
1763953,358,459,368
1763954,359,460,368
1763955,359,459,369
1763956,359,457,369
1763957,359,457,369
1763958,360,459,370
1763959,361,459,370
1763960,360,461,369
1763961,360,457,370
1763962,359,460,370
1763963,362,460,371
1763964,361,459,371
1763965,361,460,371
1763966,360,459,371
1763967,361,462,370
1763968,361,460,369
1763969,360,460,369
1763970,359,458,368
1763971,360,460,368
1763972,360,460,368
1763973,357,462,367
1763974,360,460,367
1763975,359,458,368
1763976,360,456,368
1763977,360,458,368
1763978,359,456,368
1763979,359,461,370
1763980,359,459,370
1763981,360,459,370
1763982,360,459,369
1763983,360,460,371
1763984,360,460,371
1763985,362,461,370
1763986,360,461,370
1763987,361,458,369
1763988,360,462,370
1763989,361,461,371
1763990,359,460,370
1763991,360,462,368
1763992,359,459,367
1763993,358,460,368
1763994,358,460,368
1763995,358,459,367
1763996,359,459,369
1763997,360,458,369
1763998,360,457,370
1763999,359,458,369
1764000,361,458,371
1764001,360,458,370
1764002,362,459,371
1764003,360,460,369
1764004,361,460,370
1764005,359,461,370
1764006,361,460,369
1742213005386,NEW REP,,
1764007,361,461,370
1764008,360,462,368
1764009,359,463,369
1764010,359,459,367
1764011,359,460,369
1764012,359,459,368
1764013,359,456,368
1764014,360,460,369
1764015,359,460,369
1764016,359,459,369
1764017,358,456,368
1764018,359,462,371
1764019,361,460,369
1764020,360,459,370
1764021,362,455,370
1764022,361,460,370
1764023,361,462,371
1764024,360,460,368
1764025,359,461,370
1764026,360,460,370
1764027,360,460,370
1764028,361,461,369
1764029,359,460,369
1764030,360,458,368
1764031,359,461,368
1764032,360,460,368
1764033,360,459,367
1764034,360,457,369
1764035,360,460,367
1764036,358,457,369
1764037,360,457,369
1764038,359,458,371
1764039,359,458,369
1764040,360,459,369
1764041,360,457,371
1764042,360,457,370
1764043,360,460,372
1764044,361,459,372
1764045,359,461,371
1764046,360,460,371
1764047,361,459,369
1764048,359,461,370
1764049,361,460,367
1764050,360,460,369
1764051,359,459,368
1764052,360,459,369
1764053,359,459,368
1764054,360,458,368
1764055,358,456,368
1764056,360,458,368
1764057,360,459,368
1764058,360,458,370
1764059,360,460,371
1764060,361,459,369
1764061,359,459,370
1764062,360,459,368
1764063,358,459,370
1764064,361,459,369
1764065,359,460,367
1764066,360,461,369
1764067,360,458,368
1764068,360,460,368
1764069,359,460,369
1764070,358,461,367
1764071,358,461,368
1764072,359,460,368
1764073,358,460,368
1764074,358,459,369
1764075,360,458,368
1764076,359,458,367
1764077,358,459,368
1764078,359,458,369
1764079,360,457,369
1764080,360,458,370
1764081,361,458,370
1764082,361,459,369
1764083,360,461,370
1764084,363,460,370
1764085,360,461,369
1764086,360,460,369
1764087,360,461,370
1764088,361,459,370
1764089,359,460,369
1764090,360,461,366
1764091,359,459,368
1764092,357,460,369
1764093,359,459,369
1764094,359,458,366
1764095,360,459,367
1764096,358,460,367
1764097,359,458,368
1764098,359,458,370
1764099,361,459,368
1764100,360,459,369
1764101,360,460,370
1764102,360,460,371
1764103,360,460,370
1764104,360,461,370
1764105,360,460,371
1764106,362,461,372
1764107,360,461,371
1764108,360,459,370
1764109,359,456,370
1764110,360,460,368
1764111,358,459,369
1764112,359,460,369
1764113,359,459,368
1764114,360,458,368
1764115,360,459,368
1764116,360,458,369
1764117,360,459,370
1764118,360,458,369
1764119,360,458,369
1764120,360,459,369
1764121,359,460,370
1764122,361,459,371
1764123,361,460,370
1764124,360,460,368
1764125,359,461,370
1764126,359,456,370
1764127,360,459,369
1764128,359,456,370
1764129,359,458,369
1764130,358,459,368
1764131,358,459,369
1764132,360,463,369
1764133,359,457,368
1764134,359,459,368
1764135,359,457,368
1764136,360,455,368
1764137,359,457,371
1764138,359,459,369
1764139,361,460,370
1764140,361,459,370
1764141,362,459,371
1764142,360,459,369
1764143,360,460,370
1764144,360,461,369
1764145,359,460,367
1764146,359,460,368
1764147,358,459,369
1764148,359,461,369
1764149,359,461,369
1764150,359,458,368
1764151,359,458,368
1764152,358,457,368
1764153,358,459,367
1764154,359,457,366
1764155,358,458,367
1764156,358,459,369
1764157,359,457,369
1764158,358,457,369
1764159,360,458,369
1764160,360,460,369
1764161,359,459,369
1764162,360,459,371
1764163,360,461,371
1764164,360,461,370
1764165,361,459,369
1764166,359,460,370
1764167,361,459,369
1764168,360,458,369
1764169,359,460,368
1764170,359,459,368
1764171,359,460,367
1764172,358,460,368
1764173,358,456,368
1764174,358,457,369
1764175,359,459,370
1764176,358,459,369
1764177,360,458,368
1764178,360,460,370
1764179,361,458,370
1764180,361,459,370
1764181,360,460,371
1764182,359,459,369
1764183,362,460,371
1764184,360,459,371
1764185,362,460,369
1764186,361,460,369
1764187,360,461,368
1764188,359,462,369
1764189,360,460,369
1764190,360,460,369
1764191,360,456,367
1764192,359,458,368
1764193,359,459,368
1764194,359,455,368
1764195,360,458,369
1764196,360,458,369
1764197,360,457,369
1764198,360,460,370
1764199,360,459,368
1764200,360,458,370
1764201,360,460,370
1764202,359,461,370
1764203,362,459,369
1764204,361,460,370
1764205,361,459,370
1764206,360,460,370
1764207,360,457,371
1764208,360,458,370
1764209,360,460,369
1764210,359,461,370
1764211,359,460,367
1764212,360,461,368
1764213,359,459,368
1764214,360,460,368
1764215,359,459,370
1764216,360,458,369
1764217,360,459,369
1764218,359,460,369
1764219,360,459,367
1764220,359,458,370
1764221,359,459,370
1764222,360,456,369
1764223,360,458,370
1764224,362,459,369
1764225,360,461,370
1764226,361,461,370
1764227,361,461,368
1764228,359,460,369
1764229,359,460,370
1764230,359,461,367
1764231,359,461,369
1764232,360,463,369
1764233,360,461,371
1764234,361,464,371
1764235,362,462,371
1764236,363,462,373
1764237,365,463,370
1764238,364,464,372
1764239,365,465,373
1764240,363,464,375
1764241,363,464,374
1764242,364,459,373
1764243,361,462,372
1764244,362,462,371
1764245,361,463,372
1764246,361,462,370
1764247,359,461,370
1764248,359,462,368
1764249,360,461,367
1764250,359,461,369
1764251,358,461,369
1764252,360,460,369
1764253,359,461,368
1764254,359,458,368
1764255,360,460,369
1764256,360,459,369
1764257,361,460,370
1764258,361,461,371
1764259,361,458,371
1764260,359,460,371
1764261,360,462,370
1764262,360,462,370
1764263,362,461,370
1764264,362,461,371
1764265,361,462,372
1764266,360,462,370
1764267,361,461,369
1764268,360,459,370
1764269,360,462,370
1764270,359,462,370
1764271,361,460,369
1764272,360,460,370
1764273,359,461,368
1764274,359,461,368
1764275,360,461,370
1764276,360,462,369
1764277,360,461,371
1764278,362,460,372
1764279,361,459,372
1764280,361,461,373
1764281,362,461,372
1764282,362,461,372
1764283,363,461,372
1764284,361,461,371
1764285,362,461,371
1764286,360,461,370
1764287,359,461,369
1764288,359,461,369
1764289,359,460,368
1764290,359,462,370
1764291,359,460,368
1764292,358,459,368
1764293,360,461,368
1764294,359,462,370
1764295,359,460,369
1764296,360,459,370
1764297,361,459,370
1764298,359,460,372
1764299,360,459,369
1764300,361,461,370
1764301,361,458,371
1764302,362,461,370
1764303,362,462,372
1764304,362,461,371
1764305,361,460,371
1764306,361,462,370
1764307,359,461,371
1764308,359,460,369
1764309,359,461,367
1764310,360,463,368
1764311,358,460,368
1764312,359,459,368
1764313,360,459,368
1764314,359,459,368
1764315,360,455,368
1764316,360,457,369
1764317,360,457,369
1764318,360,461,370
1764319,362,460,369
1764320,362,461,370
1764321,360,461,372
1764322,362,461,372
1764323,362,463,371
1764324,362,463,371
1764325,362,464,372
1764326,362,465,370
1764327,361,464,372
1764328,361,466,372
1764329,362,464,372
1764330,363,464,372
1764331,361,464,372
1764332,362,463,371
1764333,362,464,372
1764334,362,466,372
1764335,363,468,373
1764336,366,470,374
1764337,366,473,377
1764338,367,473,377
1764339,369,471,378
1764340,369,473,380
1764341,369,472,379
1764342,369,469,380
1764343,369,468,379
1764344,366,471,379
1764345,366,470,378
1764346,367,468,376
1764347,367,468,376
1764348,366,469,376
1764349,367,470,376
1764350,365,469,375
1764351,365,471,374
1764352,364,467,375
1764353,364,467,373
1764354,366,466,374
1764355,365,467,376
1764356,365,469,374
1764357,366,467,376
1764358,364,467,375
1764359,364,466,374
1764360,363,466,373
1764361,365,465,374
1764362,364,465,374
1764363,365,464,373
1764364,364,462,372
1764365,363,462,372
1764366,361,462,371
1764367,361,459,371
1764368,361,459,370
1764369,361,463,372
1764370,359,464,369
1764371,359,461,369
1764372,361,462,370
1764373,361,460,370
1764374,360,459,371
1764375,360,458,370
1764376,360,459,369
1764377,360,458,371
1764378,359,457,370
1764379,360,456,369
1764380,359,458,369
1764381,359,457,369
1764382,359,454,369
1764383,358,455,368
1764384,357,457,368
1764385,357,453,367
1764386,358,452,368
1764387,357,456,365
1764388,358,456,365
1764389,355,456,364
1764390,356,456,364
1764391,356,456,365
1764392,355,455,364
1764393,354,453,365
1764394,354,454,363
1764395,356,454,365
1764396,355,456,365
1764397,357,454,366
1764398,357,455,366
1764399,359,458,368
1764400,359,456,368
1764401,359,458,370
1764402,359,457,371
1764403,360,459,370
1764404,360,460,369
1764405,360,458,370
1764406,360,462,370
1764407,361,463,370
1764408,360,462,370
1764409,362,462,370
1764410,362,464,372
1764411,361,465,371
1764412,362,465,372
1764413,362,463,371
1764414,361,466,373
1764415,364,464,373
1764416,365,464,373
1764417,364,467,375
1764418,366,467,378
1764419,368,473,378
1764420,369,471,378
1764421,368,470,377
1764422,367,469,377
1764423,366,467,377
1764424,366,464,375
1764425,365,463,374
1764426,365,461,373
1764427,363,463,372
1764428,362,463,372
1764429,362,461,370
1764430,361,459,371
1764431,360,460,371
1764432,361,458,370
1764433,359,460,369
1764434,361,461,369
1764435,360,461,369
1764436,361,461,371
1764437,360,461,370
1764438,362,461,370
1764439,362,459,372
1764440,361,460,371
1764441,360,461,369
1764442,361,458,372
1764443,361,460,368
1764444,361,460,369
1764445,361,460,370
1764446,360,461,370
1764447,360,459,369
1764448,359,456,369
1764449,359,459,368
1764450,358,457,366
1764451,358,458,366
1764452,357,456,367
1764453,357,454,366
1764454,358,456,367
1764455,358,456,367
1764456,358,457,367
1764457,359,455,368
1764458,359,458,367
1764459,358,459,368
1764460,360,458,369
1764461,360,459,369
1764462,360,456,369
1764463,359,456,369
1764464,360,456,370
1764465,359,459,368
1764466,357,457,365
1764467,357,457,367
1764468,358,457,368
1764469,357,457,367
1764470,359,455,367
1764471,357,457,367
1764472,359,457,367
1764473,358,458,366
1764474,358,459,366
1764475,358,459,368
1764476,357,456,368
1764477,359,456,368
1764478,360,459,370
1764479,363,463,371
1764480,363,466,372
1764481,364,467,373
1764482,365,467,374
1764483,365,467,374
1764484,365,468,375
1764485,365,469,375
1764486,366,465,374
1764487,366,469,375
1764488,365,463,372
1764489,364,466,373
1764490,363,464,373
1764491,364,465,373
1764492,363,464,371
1764493,362,466,371
1764494,363,465,372
1764495,363,466,372
1764496,364,466,374
1764497,364,466,375
1764498,365,467,376
1764499,365,466,375
1764500,365,461,374
1764501,365,464,375
1764502,365,463,374
1764503,363,463,373
1764504,363,461,374
1764505,363,463,372
1764506,363,465,371
1764507,364,463,372
1764508,364,470,374
1764509,364,470,374
1764510,366,469,376
1764511,366,470,375
1764512,366,469,375
1764513,366,467,376
1764514,365,467,376
1764515,367,468,375
1764516,366,468,376
1764517,368,467,378
1764518,366,467,376
1764519,368,468,378
1764520,367,470,378
1764521,368,468,377
1764522,368,470,377
1764523,367,469,378
1764524,367,467,378
1764525,366,468,373
1764526,364,464,374
1764527,363,462,373
1764528,361,462,370
1764529,361,459,370
1764530,359,461,369
1764531,360,458,367
1764532,358,456,369
1764533,356,455,366
1764534,356,454,366
1764535,356,453,364
1764536,356,452,365
1764537,356,451,365
1764538,355,451,364
1764539,357,452,365
1764540,356,452,367
1764541,356,455,366
1764542,356,455,367
1764543,357,455,367
1764544,357,457,367
1764545,358,458,368
1764546,357,456,368
1764547,358,458,368
1764548,357,456,366
1764549,357,456,366
1764550,356,454,365
1764551,355,452,364
1764552,354,452,365
1764553,355,449,363
1764554,353,450,361
1764555,353,448,363
1764556,354,448,361
1764557,353,448,361
1764558,354,453,363
1764559,356,457,366
1764560,358,458,368
1764561,359,457,367
1764562,361,460,370
1764563,360,461,369
1764564,361,465,371
1764565,363,468,372
1764566,364,469,373
1764567,365,471,374
1764568,364,471,373
1764569,367,471,376
1764570,367,471,376
1764571,365,467,376
1764572,363,465,374
1764573,361,461,372
1764574,363,462,371
1764575,361,459,371
1764576,361,456,372
1764577,360,457,370
1764578,360,458,369
1764579,359,455,369
1764580,358,456,367
1764581,358,455,366
1764582,359,456,368
1764583,358,457,369
1764584,358,459,370
1764585,358,461,368
1764586,360,464,370
1764587,361,468,370
1764588,361,463,371
1764589,362,463,372
1764590,362,462,370
1764591,359,457,368
1764592,359,459,368
1764593,358,458,368
1764594,358,456,367
1764595,357,456,365
1764596,356,454,367
1764597,357,455,366
1764598,355,454,365
1764599,357,452,365
1764600,354,452,365
1764601,355,453,364
1764602,353,453,365
1764603,355,454,364
1764604,355,456,366
1764605,356,456,365
1764606,355,453,366
1764607,356,453,366
1764608,355,453,365
1764609,355,453,365
1764610,356,454,364
1764611,354,451,363
1764612,354,452,363
1764613,355,452,362
1764614,354,455,364
1764615,355,454,365
1764616,357,454,365
1764617,356,455,368
1764618,356,455,366
1764619,357,455,365
1764620,356,450,367
1764621,354,451,365
1764622,355,448,364
1764623,353,445,363
1764624,351,445,362
1764625,351,445,360
1764626,350,445,359
1764627,350,446,359
1764628,351,452,362
1764629,352,452,361
1764630,353,452,362
1764631,354,455,364
1764632,354,456,363
1764633,354,455,365
1764634,354,454,364
1764635,356,452,364
1764636,356,452,364
1764637,356,453,365
1764638,354,454,365
1764639,358,456,366
1764640,357,456,367
1764641,357,453,367
1764642,357,454,367
1764643,358,457,367
1764644,357,457,366
1764645,356,455,367
1764646,356,456,367
1764647,358,455,367
1764648,358,455,366
1764649,355,455,365
1764650,356,451,363
1764651,353,450,362
1764652,352,445,362
1764653,351,445,359
1764654,351,443,359
1764655,351,442,358
1764656,351,442,359
1764657,351,446,361
1764658,354,450,361
1764659,354,455,365
1764660,356,457,363
1764661,357,457,364
1764662,357,458,367
1764663,357,456,366
1764664,356,454,366
1764665,356,456,365
1764666,357,458,367
1764667,358,458,368
1764668,358,459,370
1764669,360,465,371
1764670,361,466,371
1764671,361,464,371
1764672,362,459,371
1764673,360,456,369
1764674,360,455,367
1764675,355,449,364
1764676,353,447,364
1764677,352,443,361
1764678,350,438,358
1764679,348,437,359
1764680,347,435,355
1764681,345,433,354
1764682,346,434,353
1764683,344,434,354
1764684,344,438,352
1764685,343,436,353
1764686,345,442,354
1764687,345,443,355
1764688,347,443,356
1764689,347,444,357
1764690,346,440,356
1764691,345,437,354
1764692,345,434,353
1764693,343,431,351
1764694,343,430,350
1764695,341,430,349
1764696,341,426,349
1764697,340,428,348
1764698,341,431,350
1764699,340,431,350
1764700,342,433,351
1764701,342,433,350
1764702,341,435,352
1764703,343,435,352
1764704,344,440,351
1764705,346,439,353
1764706,345,442,354
1764707,346,443,353
1764708,346,446,356
1764709,348,448,357
1764710,349,448,357
1764711,348,447,359
1764712,349,442,359
1764713,348,444,357
1764714,350,444,358
1764715,350,448,360
1764716,354,451,362
1764717,353,456,364
1764718,357,457,366
1764719,357,460,368
1764720,359,461,368
1764721,358,461,370
1764722,360,460,368
1764723,360,460,370
1764724,358,458,369
1764725,357,457,369
1764726,357,456,367
1764727,356,454,365
1764728,356,453,365
1764729,355,450,363
1764730,355,448,362
1764731,354,449,362
1764732,352,451,361
1764733,354,451,362
1764734,355,451,363
1764735,355,456,364
1764736,358,456,367
1764737,357,455,366
1764738,358,457,368
1764739,358,455,366
1764740,357,450,365
1764741,356,448,365
1764742,354,448,364
1764743,354,447,363
1764744,353,446,364
1764745,352,448,361
1764746,351,447,361
1764747,351,448,359
1764748,351,447,360
1764749,351,443,358
1764750,351,445,357
1764751,349,440,358
1764752,348,442,357
1764753,349,442,358
1764754,348,442,357
1764755,348,442,356
1764756,348,442,357
1764757,349,442,357
1764758,348,444,360
1764759,350,449,361
1764760,352,449,361
1764761,354,450,364
1764762,353,449,364
1764763,353,450,362
1764764,352,448,361
1764765,353,447,359
1764766,351,446,359
1764767,350,446,358
1764768,350,448,359
1764769,351,447,358
1764770,351,447,358
1764771,350,449,360
1764772,350,448,360
1764773,352,448,361
1764774,352,448,361
1764775,352,447,362
1764776,352,446,361
1764777,352,450,362
1764778,354,452,364
1764779,356,457,366
1764780,357,460,368
1764781,359,460,369
1764782,360,460,370
1764783,361,459,371
1764784,362,464,371
1764785,361,463,372
1764786,362,462,370
1764787,362,463,370
1764788,360,462,371
1764789,361,461,369
1764790,360,456,369
1764791,357,450,367
1764792,355,446,364
1764793,354,446,362
1764794,353,443,361
1764795,352,446,362
1764796,352,450,362
1764797,353,452,361
1764798,354,453,364
1764799,355,452,365
1764800,354,455,365
1764801,356,454,366
1764802,356,453,366
1764803,356,450,365
1764804,356,446,363
1764805,353,448,362
1764806,353,446,361
1764807,353,446,360
1764808,350,447,360
1764809,349,447,359
1764810,350,448,359
1764811,352,446,360
1764812,350,445,359
1764813,349,443,358
1764814,348,441,356
1764815,349,444,357
1764816,350,444,359
1764817,352,447,362
1764818,353,453,362
1764819,355,455,364
1764820,357,460,366
1764821,359,462,368
1764822,360,459,371
1764823,361,461,369
1764824,362,463,370
1764825,361,460,372
1764826,360,460,368
1764827,359,458,368
1764828,357,454,366
1764829,356,450,363
1764830,353,447,361
1764831,351,444,361
1764832,350,445,359
1764833,350,446,359
1764834,350,445,361
1764835,351,448,360
1764836,351,451,362
1764837,352,451,363
1764838,354,452,364
1764839,355,451,366
1764840,356,456,366
1764841,357,454,365
1764842,355,450,366
1764843,356,452,365
1764844,355,452,364
1764845,356,453,364
1764846,354,453,365
1764847,356,457,367
1764848,356,459,367
1764849,360,461,370
1764850,361,466,370
1764851,361,467,371
1764852,363,466,372
1764853,363,463,371
1764854,361,459,372
1764855,361,456,370
1764856,359,448,368
1764857,357,450,366
1764858,354,448,363
1764859,351,443,361
1764860,351,441,361
1764861,351,441,360
1764862,350,444,359
1764863,349,444,357
1764864,349,442,357
1764865,349,441,357
1764866,349,443,357
1764867,347,444,356
1764868,349,444,356
1764869,348,444,356
1764870,348,448,358
1764871,348,448,359
1764872,351,448,359
1764873,350,447,360
1764874,350,449,361
1764875,354,450,361
1764876,353,452,362
1764877,355,454,365
1764878,355,453,365
1764879,355,453,365
1764880,355,451,364
1764881,357,454,366
1764882,357,458,367
1764883,358,463,370
1764884,362,466,372
1764885,363,472,374
1764886,366,475,376
1764887,367,477,376
1764888,368,477,378
1764889,369,475,380
1764890,369,474,379
1764891,368,470,378
1764892,367,469,376
1764893,365,465,376
1764894,362,461,373
1764895,362,458,370
1764896,360,456,370
1764897,362,463,370
1764898,363,469,373
1764899,366,473,375
1764900,367,473,377
1764901,368,472,379
1764902,368,469,377
1764903,366,467,375
1764904,364,459,373
1764905,360,455,369
1764906,359,452,367
1764907,358,453,366
1764908,355,450,364
1764909,354,449,362
1764910,353,448,361
1764911,352,447,361
1764912,351,446,361
1764913,351,448,360
1764914,352,450,362
1764915,354,455,363
1764916,356,458,367
1764917,358,461,368
1764918,358,462,370
1764919,360,459,370
1764920,359,455,370
1764921,360,455,369
1764922,358,455,368
1764923,358,457,367
1764924,358,462,367
1764925,360,467,370
1764926,361,470,372
1764927,364,476,375
1764928,367,485,379
1764929,370,486,382
1764930,374,486,384
1764931,374,478,384
1764932,371,476,382
1764933,372,472,380
1764934,369,466,377
1764935,365,459,374
1764936,363,454,370
1764937,362,451,368
1764938,358,450,367
1764939,358,454,367
1764940,358,457,369
1764941,360,459,368
1764942,360,461,370
1764943,360,461,370
1764944,361,464,370
1764945,362,464,372
1764946,362,467,372
1764947,363,469,374
1764948,364,474,374
1764949,368,477,379
1764950,370,481,380
1764951,371,480,382
1764952,371,477,382
1764953,370,475,381
1764954,368,472,379
1764955,367,466,377
1764956,365,464,376
1764957,365,458,374
1764958,363,461,373
1764959,362,457,371
1764960,361,458,371
1764961,359,459,368
1764962,360,459,371
1764963,361,456,369
1764964,359,455,367
1764965,358,458,368
1764966,358,458,368
1764967,358,460,368
1764968,359,460,367
1764969,360,461,367
1764970,361,463,370
1764971,363,467,370
1764972,364,471,373
1764973,366,472,376
1764974,366,472,376
1764975,367,470,378
1764976,366,467,377
1764977,363,462,374
1764978,363,456,373
1764979,362,454,372
1764980,359,456,370
1764981,359,452,369
1764982,360,458,369
1764983,359,458,368
1764984,358,457,368
1764985,358,457,367
1764986,357,456,367
1764987,359,462,368
1764988,360,467,372
1764989,363,473,374
1764990,366,474,376
1764991,366,475,377
1764992,368,471,378
1764993,367,469,377
1764994,367,466,376
1764995,365,459,374
1764996,364,460,373
1764997,363,459,372
1764998,361,454,371
1764999,360,456,370
1765000,358,453,367
1765001,356,449,365
1765002,355,448,363
1765003,354,448,363
1765004,353,450,364
1765005,353,453,363
1765006,354,453,363
1765007,356,456,364
1765008,355,456,364
1765009,357,456,364
1765010,356,455,366
1765011,355,452,364
1765012,353,450,364
1765013,353,450,361
1765014,352,448,363
1765015,351,448,361
1765016,351,448,361
1765017,352,446,362
1765018,351,444,361
1765019,352,445,361
1765020,352,446,361
1765021,352,448,361
1765022,353,454,363
1765023,352,455,364
1765024,356,457,366
1765025,357,459,367
1765026,358,463,369
1765027,360,467,371
1765028,363,472,373
1765029,364,470,375
1765030,364,468,374
1765031,365,469,376
1765032,363,462,373
1765033,361,457,371
1765034,358,451,368
1765035,358,451,364
1765036,355,448,366
1765037,356,450,364
1765038,357,449,364
1765039,358,456,366
1765040,358,459,367
1765041,359,458,369
1765042,358,457,369
1765043,360,456,367
1765044,357,454,363
1765045,355,449,363
1765046,353,447,360
1765047,349,448,359
1765048,352,451,361
1765049,354,452,362
1765050,353,455,361
1765051,354,455,363
1765052,353,453,363
1765053,354,454,364
1765054,353,453,364
1765055,354,455,364
1765056,356,459,364
1765057,359,463,369
1765058,362,462,371
1765059,360,462,372
1765060,360,458,371
1765061,359,453,368
1765062,357,451,368
1765063,357,454,367
1765064,355,454,365
1765065,355,452,365
1765066,356,452,365
1765067,356,457,364
1765068,357,459,368
1765069,362,471,372
1765070,366,475,374
1765071,367,477,377
1765072,372,487,382
1765073,374,488,386
1765074,376,487,388
1765075,378,483,388
1765076,376,479,386
1765077,375,471,384
1765078,371,466,381
1765079,367,458,376
1765080,363,452,373
1765081,360,449,369
1765082,358,449,366
1765083,355,448,364
1765084,355,453,364
1765085,356,459,364
1765086,358,464,367
1765087,360,466,370
1765088,361,466,372
1765089,362,465,370
1765090,358,460,370
1765091,359,457,367
1765092,359,455,367
1765093,360,460,368
1765094,359,461,369
1765095,362,464,371
1765096,364,464,372
1765097,363,463,373
1765098,365,461,374
1765099,361,457,372
1765100,362,458,371
1765101,361,453,369
1765102,359,452,366
1765103,356,450,365
1765104,354,448,363
1765105,354,448,363
1765106,349,447,361
1765107,348,445,361
1765108,348,446,359
1765109,349,446,357
1765110,348,446,357
1765111,348,447,357
1765112,348,446,357
1765113,348,446,357
1765114,349,444,360
1765115,350,447,359
1765116,350,444,359
1765117,350,448,360
1765118,352,447,362
1765119,354,453,363
1765120,356,451,365
1765121,356,455,365
1765122,356,455,365
1765123,357,457,366
1765124,357,454,366
1765125,355,456,366
1765126,354,454,363
1765127,355,453,365
1765128,355,450,363
1765129,354,451,363
1765130,354,450,363
1765131,353,450,362
1765132,353,451,362
1765133,352,451,362
1765134,356,450,362
1765135,355,459,366
1765136,357,463,368
1765137,362,465,370
1765138,361,467,373
1765139,364,467,375
1765140,365,466,375
1765141,364,464,374
1765142,363,462,374
1765143,363,460,372
1765144,361,457,370
1765145,361,459,371
1765146,360,458,369
1765147,359,459,368
1765148,361,461,367
1765149,361,467,370
1765150,363,473,374
1765151,365,473,375
1765152,367,476,378
1765153,370,477,379
1765154,371,478,379
1765155,371,475,380
1765156,369,470,380
1765157,369,471,379
1765158,368,469,379
1765159,369,471,380
1765160,369,472,379
1765161,369,470,378
1765162,370,474,379
1765163,370,475,379
1765164,371,480,380
1765165,372,477,381
1765166,372,476,382
1765167,371,473,378
1765168,367,468,376
1765169,364,461,376
1765170,362,457,371
1765171,360,455,369
1765172,360,456,368
1765173,358,459,368
1765174,359,461,369
1765175,360,463,371
1765176,361,462,371
1765177,363,465,371
1765178,364,466,375
1765179,363,468,375
1765180,365,470,375
1765181,368,471,378
1765182,369,474,378
1765183,369,473,378
1765184,371,472,380
1765185,371,476,380
1765186,371,478,381
1765187,371,474,381
1765188,371,474,381
1765189,368,470,379
1765190,367,466,377
1765191,365,463,374
1765192,364,461,375
1765193,361,459,370
1765194,361,455,371
1765195,360,456,371
1765196,360,457,369
1765197,360,455,369
1765198,359,454,368
1765199,357,451,367
1765200,357,450,367
1765201,356,450,366
1765202,354,449,362
1765203,352,447,362
1765204,351,446,361
1765205,352,444,360
1765206,351,447,359
1765207,351,448,360
1765208,351,449,359
1765209,349,450,360
1765210,352,451,360
1765211,352,449,361
1765212,352,450,361
1765213,353,449,362
1765214,352,446,362
1765215,352,446,361
1765216,352,445,362
1765217,352,447,361
1765218,353,448,363
1765219,355,448,364
1765220,355,454,365
1765221,355,453,363
1765222,356,451,366
1765223,357,453,365
1765224,355,453,364
1765225,356,451,365
1765226,356,455,365
1765227,355,457,367
1765228,358,460,366
1765229,358,462,368
1765230,360,462,366
1765231,360,462,370
1765232,360,462,370
1765233,362,461,370
1765234,361,462,372
1765235,363,460,371
1765236,360,459,371
1765237,360,458,370
1765238,360,458,370
1765239,359,457,370
1765240,359,460,373
1765241,361,462,372
1765242,362,464,373
1765243,363,466,374
1765244,364,465,373
1765245,364,466,373
1765246,364,465,376
1765247,363,466,375
1765248,364,468,374
1765249,366,469,375
1765250,366,471,375
1765251,365,467,375
1765252,366,470,375
1765253,365,471,375
1765254,365,469,376
1765255,367,469,375
1765256,365,467,376
1765257,366,466,376
1765258,364,465,374
1765259,363,463,375
1765260,365,461,373
1765261,364,461,373
1765262,363,461,371
1765263,361,460,370
1765264,360,460,370
1765265,361,456,370
1765266,359,458,368
1765267,359,460,367
1765268,359,458,368
1765269,358,458,366
1765270,357,458,367
1765271,357,456,367
1765272,357,455,366
1765273,357,454,365
1765274,357,456,367
1765275,358,458,367
1765276,359,459,368
1765277,359,463,371
1765278,363,469,373
1765279,366,473,375
1765280,368,476,378
1765281,369,475,379
1765282,369,474,379
1765283,370,474,379
1765284,369,472,380
1765285,368,470,377
1765286,366,468,377
1765287,365,467,373
1765288,365,467,373
1765289,365,468,374
1765290,364,471,375
1765291,368,476,377
1765292,369,479,380
1765293,371,480,382
1765294,371,477,381
1765295,372,476,382
1765296,370,472,380
1765297,370,465,379
1765298,367,467,377
1765299,366,465,375
1765300,364,464,375
1765301,364,463,371
1765302,364,463,374
1765303,362,462,373
1765304,362,462,371
1765305,359,461,371
1765306,360,460,370
1765307,359,462,368
1765308,360,461,370
1765309,359,461,370
1765310,360,460,370
1765311,358,461,368
1765312,359,462,370
1765313,360,461,369
1765314,362,463,371
1765315,361,465,372
1765316,362,464,373
1765317,364,466,372
1765318,364,465,373
1765319,364,468,374
1765320,365,463,374
1765321,366,466,375
1765322,366,467,375
1765323,366,469,374
1765324,365,468,375
1765325,364,466,376
1765326,363,466,372
1765327,363,466,373
1765328,363,465,373
1765329,362,466,373
1765330,361,464,371
1765331,362,464,372
1765332,363,465,371
1765333,363,466,373
1765334,364,466,373
1765335,363,466,375
1765336,364,465,373
1765337,365,465,375
1765338,363,464,374
1765339,364,466,374
1765340,364,468,375
1765341,367,470,377
1765342,367,469,377
1765343,367,471,377
1765344,367,470,376
1765345,367,466,376
1765346,367,468,376
1765347,367,473,377
1765348,367,471,377
1765349,368,472,376
1765350,369,473,378
1765351,369,472,378
1765352,369,474,379
1765353,369,473,379
1765354,368,471,378
1765355,368,470,377
1765356,367,469,378
1765357,367,468,377
1765358,367,467,376
1765359,366,463,377
1765360,367,466,376
1765361,366,466,376
1765362,366,467,376
1765363,366,466,376
1765364,364,465,374
1765365,363,466,373
1765366,363,463,373
1765367,364,464,373
1765368,362,462,372
1765369,362,461,371
1765370,364,463,371
1765371,363,464,371
1765372,362,463,371
1765373,364,464,372
1765374,363,465,372
1765375,363,466,374
1765376,365,463,375
1765377,366,468,375
1765378,365,469,376
1765379,366,468,375
1765380,367,470,377
1765381,367,472,377
1765382,369,474,378
1765383,370,475,378
1765384,369,479,380
1765385,373,480,382
1765386,374,483,383
1765387,375,483,382
1765388,374,481,384
1765389,374,476,382
1765390,373,475,382
1765391,372,472,381
1765392,371,475,381
1765393,371,473,379
1765394,370,473,380
1765395,369,472,379
1765396,370,467,378
1765397,368,470,379
1765398,367,467,377
1765399,366,464,377
1765400,368,463,377
1765401,366,467,377
1765402,366,467,376
1765403,367,467,376
1765404,365,466,376
1765405,367,467,374
1765406,365,467,374
1765407,364,466,374
1765408,363,464,373
1765409,364,465,372
1765410,362,466,371
1765411,362,465,373
1765412,363,465,372
1765413,363,465,373
1765414,364,463,372
1765415,363,464,373
1765416,365,466,373
1765417,365,468,374
1765418,366,470,375
1765419,367,469,377
1765420,365,468,377
1765421,367,466,374
1765422,365,466,376
1765423,366,465,376
1765424,365,464,376
1765425,367,467,375
1765426,367,467,373
1765427,363,468,374
1765428,363,469,373
1765429,364,470,375
1765430,365,469,374
1765431,366,468,376
1765432,366,470,376
1765433,367,470,376
1765434,367,470,376
1765435,368,470,378
1765436,367,470,378
1765437,369,473,379
1765438,370,472,380
1765439,370,472,380
1765440,369,470,380
1765441,369,468,379
1765442,369,469,379
1765443,368,472,378
1765444,368,470,379
1765445,370,475,379
1765446,369,475,380
1765447,369,475,381
1765448,369,474,381
1765449,367,472,379
1765450,367,470,379
1765451,368,468,377
1765452,367,467,375
1765453,366,465,374
1765454,366,464,375
1765455,365,464,374
1765456,363,464,374
1765457,365,464,374
1765458,364,467,374
1765459,366,469,375
1765460,366,473,378
1765461,369,476,380
1765462,371,478,381
1765463,370,475,382
1765464,369,473,381
1765465,370,472,379
1765466,367,465,377
1765467,365,465,376
1765468,364,463,373
1765469,363,461,370
1765470,363,460,370
1765471,361,457,371
1765472,360,459,368
1765473,358,458,369
1765474,359,458,370
1765475,360,459,368
1765476,359,458,370
1765477,360,460,372
1765478,363,463,373
1765479,363,466,373
1765480,365,465,371
1765481,364,464,374
1765482,364,462,373
1765483,363,465,374
1765484,364,466,373
1765485,364,465,373
1765486,364,466,375
1765487,365,466,373
1765488,364,464,373
1765489,364,464,373
1765490,364,465,373
1765491,363,464,374
1765492,363,467,373
1765493,364,468,374
1765494,366,467,374
1765495,366,470,376
1765496,368,473,377
1765497,368,471,379
1765498,368,469,378
1765499,368,467,378
1765500,367,465,377
1765501,365,466,377
1765502,366,466,376
1765503,364,466,376
1765504,366,465,374
1765505,365,468,375
1765506,365,470,375
1765507,365,471,376
1765508,366,470,376
1765509,366,470,376
1765510,365,468,376
1765511,366,464,373
1765512,364,463,372
1765513,361,460,371
1765514,361,457,371
1765515,361,457,370
1765516,359,457,370
1765517,359,455,368
1765518,359,456,367
1765519,360,457,368
1765520,359,458,369
1765521,360,457,369
1765522,360,459,369
1765523,360,459,369
1765524,362,462,371
1765525,362,459,371
1765526,362,466,371
1765527,364,470,373
1765528,366,472,376
1765529,366,469,375
1765530,367,471,377
1765531,370,475,380
1765532,370,474,377
1765533,370,476,380
1765534,370,470,379
1765535,370,474,380
1765536,370,473,381
1765537,369,472,381
1765538,369,470,380
1765539,367,468,379
1765540,367,468,377
1765541,367,466,376
1765542,367,464,375
1765543,365,463,375
1765544,364,459,374
1765545,361,461,372
1765546,361,461,370
1765547,360,461,370
1765548,362,463,370
1765549,359,465,371
1765550,361,463,370
1765551,361,464,371
1765552,362,462,370
1765553,361,461,370
1765554,359,458,370
1765555,360,458,370
1765556,359,459,367
1765557,359,459,370
1765558,362,459,370
1765559,362,462,371
1765560,362,463,372
1765561,364,462,373
1765562,364,463,374
1765563,364,466,376
1765564,364,464,373
1765565,364,464,373
1765566,363,465,372
1765567,363,463,372
1765568,363,466,373
1765569,362,466,372
1765570,363,466,372
1765571,364,468,373
1765572,363,467,374
1765573,365,466,373
1765574,365,466,375
1765575,364,463,375
1765576,364,463,374
1765577,365,464,375
1765578,364,466,374
1765579,364,467,373
1765580,365,469,378
1765581,366,472,377
1765582,367,471,377
1765583,367,468,376
1765584,366,467,376
1765585,364,467,375
1765586,365,466,374
1765587,361,463,373
1765588,362,463,371
1765589,361,461,371
1765590,360,461,370
1765591,359,460,370
1765592,362,463,371
1765593,361,462,370
1765594,361,464,371
1765595,361,464,373
1765596,363,461,372
1765597,362,463,373
1765598,361,460,372
1765599,362,461,371
1765600,362,459,372
1765601,361,459,372
1765602,361,464,372
1765603,364,467,374
1765604,366,466,373
1765605,365,472,374
1765606,365,472,374
1765607,366,474,377
1765608,367,473,378
1765609,367,474,376
1765610,368,474,376
1765611,369,473,379
1765612,368,470,377
1765613,366,465,378
1765614,364,464,373
1765615,362,461,372
1765616,362,460,370
1765617,362,458,371
1765618,361,458,370
1765619,360,459,369
1765620,360,458,369
1765621,360,460,370
1765622,361,464,371
1765623,363,464,371
1765624,363,467,373
1765625,364,470,375
1765626,366,472,376
1765627,366,469,374
1765628,365,467,374
1765629,364,464,374
1765630,363,461,371
1765631,359,457,369
1765632,359,456,367
1765633,359,454,367
1765634,358,455,367
1765635,358,454,366
1765636,358,454,366
1765637,357,454,367
1765638,358,455,367
1765639,359,457,368
1765640,359,458,368
1765641,361,458,369
1765642,361,459,370
1765643,359,459,369
1765644,359,459,370
1765645,359,460,369
1765646,358,460,368
1765647,359,463,368
1765648,362,467,371
1765649,363,469,371
1765650,363,471,374
1765651,363,469,373
1765652,365,471,375
1765653,365,468,374
1765654,365,467,377
1765655,364,463,374
1765656,365,462,374
1765657,363,462,373
1765658,364,461,373
1765659,363,460,372
1765660,362,461,372
1765661,360,460,371
1765662,362,462,372
1765663,362,463,372
1765664,362,466,372
1765665,361,465,370
1765666,361,463,370
1765667,360,458,370
1765668,361,457,369
1765669,360,458,369
1765670,359,455,367
1765671,357,455,367
1765672,360,457,368
1765673,359,457,368
1765674,358,457,370
1765675,359,455,368
1765676,357,454,368
1765677,357,453,367
1765678,357,455,367
1765679,357,455,368
1765680,357,457,369
1765681,358,459,368
1765682,359,461,370
1765683,361,462,370
1765684,360,462,370
1765685,359,461,370
1765686,361,463,370
1765687,360,459,369
1765688,360,463,368
1765689,361,464,369
1765690,363,460,372
1765691,361,464,371
1765692,361,463,372
1765693,361,458,372
1765694,362,460,370
1765695,361,458,371
1765696,358,457,369
1765697,358,456,369
1765698,358,455,367
1765699,358,451,367
1765700,358,452,366
1765701,357,452,367
1765702,356,451,366
1765703,355,450,365
1765704,356,450,364
1765705,355,449,363
1765706,355,447,361
1765707,352,449,361
1765708,350,449,360
1765709,352,452,361
1765710,352,453,361
1765711,354,453,362
1765712,355,456,364
1765713,355,454,365
1765714,355,452,365
1765715,354,452,366
1765716,355,449,366
1765717,354,449,364
1765718,354,448,363
1765719,353,449,362
1765720,354,449,364
1765721,352,450,364
1765722,354,453,364
1765723,354,454,362
1765724,352,453,363
1765725,355,451,363
1765726,353,452,363
1765727,354,452,363
1765728,353,447,361
1765729,352,447,361
1765730,352,446,361
1765731,352,446,360
1765732,352,450,360
1765733,353,453,361
1765734,355,453,363
1765735,357,457,366
1765736,358,458,367
1765737,360,458,369
1765738,360,457,370
1765739,361,458,371
1765740,360,455,368
1765741,358,455,368
1765742,357,451,368
1765743,357,453,366
1765744,354,450,364
1765745,355,447,361
1765746,352,445,362
1765747,349,445,360
1765748,351,446,359
1765749,349,446,358
1765750,349,445,357
1765751,348,445,358
1765752,349,445,359
1765753,350,445,359
1765754,350,445,359
1765755,349,447,360
1765756,351,449,360
1765757,352,452,361
1765758,353,455,363
1765759,356,458,366
1765760,357,459,366
1765761,357,457,368
1765762,356,458,366
1765763,357,454,365
1765764,355,452,363
1765765,356,451,363
1765766,355,447,363
1765767,354,450,363
1765768,353,451,363
1765769,353,453,363
1765770,353,450,362
1765771,354,450,363
1765772,352,451,361
1765773,352,449,363
1765774,353,449,362
1765775,354,449,363
1765776,354,448,363
1765777,355,451,363
1765778,355,450,363
1765779,357,454,365
1765780,356,451,366
1765781,355,452,365
1765782,357,454,366
1765783,356,451,366
1765784,356,452,364
1765785,356,449,363
1765786,353,448,362
1765787,352,447,363
1765788,352,449,361
1765789,353,445,362
1765790,352,445,360
1765791,352,449,360
1765792,352,448,359
1765793,352,450,361
1765794,353,450,362
1765795,354,450,362
1765796,353,448,361
1765797,352,447,362
1765798,352,447,361
1765799,351,442,361
1765800,350,445,361
1765801,350,441,360
1765802,350,443,360
1765803,349,443,359
1765804,349,442,359
1765805,350,443,357
1765806,347,442,357
1765807,347,442,358
1765808,347,445,357
1765809,348,444,356
1765810,349,445,358
1765811,347,447,358
1765812,349,444,359
1765813,350,446,359
1765814,350,447,358
1765815,350,450,362
1765816,352,449,362
1765817,352,452,364
1765818,355,451,364
1765819,354,454,366
1765820,356,456,366
1765821,357,455,366
1765822,358,456,366
1765823,357,455,367
1765824,357,456,366
1765825,358,457,367
1765826,359,458,369
1765827,360,463,368
1765828,361,463,370
1765829,362,463,369
1765830,360,462,370
1765831,361,461,371
1765832,360,459,370
1765833,360,457,370
1765834,360,455,369
1765835,360,456,369
1765836,359,457,369
1765837,359,457,368
1765838,360,458,370
1765839,361,458,370
1765840,360,459,369
1765841,360,458,369
1765842,358,456,368
1765843,358,455,367
1765844,358,456,368
1765845,357,454,366
1765846,358,453,365
1765847,355,453,363
1765848,353,453,364
1765849,355,453,362
1765850,353,454,362
1765851,355,453,364
1765852,354,452,364
1765853,355,452,364
1765854,355,449,365
1765855,354,446,363
1765856,352,448,363
1765857,352,445,362
1765858,352,448,364
1765859,353,447,362
1765860,353,448,362
1765861,353,452,363
1765862,355,450,364
1765863,355,452,365
1765864,355,453,365
1765865,354,453,363
1765866,353,452,363
1765867,354,451,363
1765868,353,451,360
1765869,351,447,359
1765870,351,448,359
1765871,351,450,359
1765872,351,450,360
1765873,353,452,363
1765874,353,453,363
1765875,354,453,365
1765876,355,453,364
1765877,356,454,365
1765878,356,455,366
1765879,357,453,366
1765880,355,455,367
1765881,355,453,367
1765882,358,455,367
1765883,357,455,366
1765884,358,458,367
1765885,357,457,365
1765886,357,458,368
1765887,357,458,367
1765888,358,458,370
1765889,358,460,368
1765890,359,460,368
1765891,359,460,369
1765892,359,458,368
1765893,360,456,368
1765894,358,455,366
1765895,357,453,367
1765896,355,450,366
1765897,356,454,367
1765898,356,454,368
1765899,357,455,367
1765900,357,458,369
1765901,360,463,369
1765902,362,467,374
1765903,363,469,375
1765904,364,472,375
1765905,366,472,376
1765906,366,470,375
1765907,364,465,374
1765908,364,461,372
1765909,360,458,369
1765910,358,458,370
1765911,358,456,367
1765912,357,455,366
1765913,356,455,366
1765914,357,454,367
1765915,356,457,367
1765916,357,456,367
1765917,358,455,367
1765918,357,456,368
1765919,357,455,367
1765920,357,454,367
1765921,357,451,365
1765922,357,451,367
1765923,356,454,366
1765924,358,455,367
1765925,357,458,365
1765926,358,457,367
1765927,358,464,369
1765928,360,466,370
1765929,362,466,370
1765930,361,465,372
1765931,362,463,372
1765932,363,462,371
1765933,361,457,370
1765934,360,456,369
1765935,358,454,367
1765936,358,451,367
1765937,355,448,366
1765938,355,451,366
1765939,355,451,364
1765940,356,450,366
1765941,354,451,363
1765942,353,452,364
1765943,355,453,363
1765944,355,451,363
1765945,355,452,363
1765946,355,453,364
1765947,352,451,361
1765948,352,452,362
1765949,352,451,362
1765950,353,452,360
1765951,353,452,362
1765952,354,448,361
1765953,354,453,363
1765954,354,450,364
1765955,355,449,364
1765956,355,451,364
1765957,358,455,366
1765958,357,456,366
1765959,357,458,366
1765960,359,459,369
1765961,359,458,369
1765962,359,460,369
1765963,360,460,370
1765964,358,459,367
1765965,359,460,368
1765966,358,457,368
1765967,357,456,366
1765968,357,454,366
1765969,355,455,366
1765970,357,453,366
1765971,357,459,366
1765972,358,460,366
1765973,358,459,367
1765974,359,459,368
1765975,359,459,370
1765976,360,459,368
1765977,360,458,368
1765978,359,456,369
1765979,358,457,367
1765980,359,455,369
1765981,360,457,369
1765982,360,461,369
1765983,361,464,371
1765984,365,463,371
1765985,363,463,372
1765986,363,463,371
1765987,362,464,370
1765988,361,457,371
1765989,362,458,370
1765990,360,458,370
1765991,359,455,368
1765992,358,457,367
1765993,358,456,367
1765994,357,454,368
1765995,358,456,367
1765996,359,454,367
1765997,357,452,367
1765998,358,454,367
1765999,359,457,369
1766000,357,459,369
1766001,359,459,368
1766002,358,458,368
1766003,360,459,369
1766004,359,458,367
1766005,358,457,367
1766006,356,454,367
1766007,356,454,365
1766008,355,452,364
1766009,355,452,363
1766010,352,452,361
1766011,354,451,363
1766012,354,451,362
1766013,353,451,362
1766014,353,451,364
1766015,354,454,364
1766016,355,453,363
1766017,355,454,365
1766018,355,456,367
1766019,356,454,366
1766020,356,454,365
1766021,357,455,367
1766022,356,455,365
1766023,354,453,365
1766024,355,454,365
1766025,357,456,366
1766026,356,455,366
1766027,357,457,366
1766028,356,453,366
1766029,357,457,366
1766030,357,454,367
1766031,357,458,367
1766032,358,456,366
1766033,358,457,368
1766034,358,457,367
1766035,359,456,368
1766036,359,458,368
1766037,360,460,369
1766038,361,461,370
1766039,363,464,372
1766040,363,460,373
1766041,364,464,373
1766042,364,466,374
1766043,365,463,373
1766044,363,461,372
1766045,362,458,370
1766046,361,459,371
1766047,361,459,368
1766048,360,458,369
1766049,359,458,367
1766050,360,461,370
1766051,360,462,367
1766052,361,463,372
1766053,362,466,372
1766054,363,464,374
1766055,365,463,373
1766056,365,461,373
1766057,363,459,372
1766058,363,460,372
1766059,361,461,371
1766060,360,460,370
1766061,362,459,371
1766062,361,463,371
1766063,361,462,371
1766064,363,467,372
1766065,363,463,373
1766066,364,462,372
1766067,361,461,372
1766068,362,462,372
1766069,362,461,369
1766070,358,460,370
1766071,360,461,369
1766072,360,463,370
1766073,362,463,370
1766074,361,462,371
1766075,363,462,371
1766076,361,462,372
1766077,362,461,371
1766078,362,457,370
1766079,360,456,370
1766080,362,456,370
1766081,359,458,370
1766082,359,457,369
1766083,358,459,367
1766084,358,459,368
1766085,358,459,368
1766086,357,459,368
1766087,358,458,368
1766088,359,461,369
1766089,360,460,369
1766090,360,462,369
1766091,361,459,370
1766092,361,458,369
1766093,360,459,368
1766094,360,452,369
1766095,359,456,369
1766096,359,455,368
1766097,358,457,368
1766098,361,456,369
1766099,359,457,369
1766100,359,457,369
1766101,359,457,368
1766102,359,459,369
1766103,358,458,367
1766104,359,457,368
1766105,359,456,368
1766106,359,461,369
1766107,358,459,367
1766108,357,457,366
1766109,358,458,366
1766110,357,460,366
1766111,357,459,368
1766112,358,461,369
1766113,359,463,370
1766114,360,463,371
1766115,361,465,372
1766116,361,464,372
1766117,363,464,373
1766118,364,464,374
1766119,364,463,373
1766120,364,464,374
1766121,364,464,373
1766122,364,464,373
1766123,363,461,373
1766124,365,463,373
1766125,362,466,371
1766126,364,465,372
1766127,363,466,372
1766128,363,466,371
1766129,360,465,371
1766130,362,465,371
1766131,363,465,372
1766132,362,464,373
1766133,363,462,372
1766134,362,463,373
1766135,363,464,373
1766136,363,465,374
1766137,364,467,375
1766138,366,467,376
1766139,365,466,376
1766140,365,466,375
1766141,366,467,376
1766142,365,467,375
1766143,365,468,375
1766144,364,468,376
1766145,364,469,374
1766146,365,466,375
1766147,364,467,373
1766148,364,467,375
1766149,364,465,372
1766150,364,465,373
1766151,363,463,372
1766152,364,464,374
1766153,364,464,373
1766154,364,465,373
1766155,364,465,373
1766156,365,465,374
1766157,364,466,376
1766158,365,466,375
1766159,364,468,376
1766160,367,467,375
1766161,365,467,376
1766162,366,466,376
1766163,367,468,376
1766164,368,468,376
1766165,365,469,375
1766166,366,470,374
1766167,366,472,378
1766168,366,469,378
1766169,367,468,375
1766170,367,468,375
1766171,367,470,377
1766172,365,468,375
1766173,367,468,376
1766174,366,466,375
1766175,366,469,376
1766176,367,467,377
1766177,365,467,378
1766178,368,471,377
1766179,368,472,379
1766180,370,471,379
1766181,369,471,379
1766182,368,472,378
1766183,368,472,378
1766184,368,469,376
1766185,368,470,377
1766186,367,470,377
1766187,366,469,375
1766188,365,468,375
1766189,366,467,375
1766190,365,464,375
1766191,366,467,374
1766192,365,463,374
1766193,364,466,373
1766194,363,465,375
1766195,365,466,373
1766196,366,465,374
1766197,363,468,375
1766198,365,467,375
1766199,365,468,376
1766200,366,467,377
1766201,367,469,377
1766202,367,467,376
1766203,365,468,376
1766204,367,471,376
1766205,367,469,376
1766206,367,469,375
1766207,366,471,375
1766208,365,470,375
1766209,366,469,376
1766210,365,469,376
1766211,365,470,375
1766212,366,471,376
1766213,366,469,376
1766214,366,469,376
1766215,367,472,378
1766216,369,472,378
1766217,370,473,381
1766218,372,475,381
1766219,372,477,381
1766220,372,477,381
1766221,371,475,383
1766222,371,475,382
1766223,370,473,380
1766224,369,471,380
1766225,367,469,378
1766226,368,470,377
1766227,367,468,377
1766228,366,469,375
1766229,366,468,374
1766230,366,468,373
1766231,366,468,375
1766232,365,467,374
1766233,365,467,374
1766234,365,467,377
1766235,365,467,376
1766236,366,466,376
1766237,365,469,376
1766238,366,468,377
1766239,366,469,376
1766240,367,469,376
1766241,366,468,376
1766242,367,469,377
1766243,366,470,375
1766244,365,471,375
1766245,367,467,375
1766246,366,472,375
1766247,367,471,376
1766248,366,467,376
1766249,367,466,376
1766250,366,468,375
1766251,365,468,375
1766252,366,468,374
1766253,366,468,376
1766254,365,467,377
1766255,366,464,376
1766256,365,465,376
1766257,366,465,376
1766258,368,470,376
1766259,368,468,375
1766260,367,469,376
1766261,365,470,377
1766262,367,469,376
1766263,367,469,377
1766264,368,470,375
1766265,367,470,376
1766266,367,469,376
1766267,367,467,376
1766268,365,469,376
1766269,366,469,375
1766270,365,468,374
1766271,366,466,376
1766272,366,469,375
1766273,366,468,375
1766274,367,467,375
1766275,366,468,375
1766276,367,467,377
1766277,367,467,378
1766278,367,468,376
1766279,367,470,376
1766280,367,466,378
1766281,366,467,377
1766282,368,470,376
1766283,364,467,376
1766284,367,469,376
1766285,365,469,375
1766286,363,469,375
1766287,364,468,374
1766288,365,467,374
1766289,364,468,373
1766290,364,467,375
1766291,365,468,374
1766292,366,466,373
1766293,366,465,374
1766294,366,469,377
1766295,367,465,375
1766296,366,467,375
1766297,366,471,377
1766298,366,472,378
1766299,369,473,379
1766300,371,476,381
1766301,369,477,382
1766302,372,477,382
1766303,372,476,382
1766304,371,476,381
1766305,369,474,380
1766306,368,472,377
1766307,366,470,376
1766308,368,471,376
1766309,367,469,375
1766310,366,470,375
1766311,365,469,375
1766312,366,468,375
1766313,365,467,375
1766314,367,467,376
1766315,365,468,377
1766316,367,469,378
1766317,367,464,376
1766318,365,466,377
1766319,365,468,378
1766320,366,469,376
1766321,367,468,377
1766322,364,469,377
1766323,365,469,374
1766324,365,469,376
1766325,365,469,374
1766326,365,469,376
1766327,366,468,375
1766328,365,469,376
1766329,367,470,375
1766330,367,469,376
1766331,366,468,376
1766332,366,469,376
1766333,366,468,377
1766334,366,468,377
1766335,367,468,378
1766336,368,469,378
1766337,368,469,377
1766338,367,471,377
1766339,368,471,378
1766340,368,471,379
1766341,367,469,377
1766342,368,470,377
1766343,367,469,376
1766344,366,469,376
1766345,365,468,375
1766346,366,467,375
1766347,365,468,374
1766348,365,467,375
1766349,364,469,374
1766350,365,468,373
1766351,365,465,374
1766352,364,468,375
1766353,365,468,375
1766354,364,467,376
1766355,366,465,375
1766356,366,465,378
1766357,365,467,376
1766358,367,467,376
1766359,365,469,376
1766360,367,470,377
1766361,367,470,378
1766362,368,471,377
1766363,367,470,377
1766364,366,471,376
1766365,367,470,375
1766366,366,467,376
1766367,367,469,376
1766368,366,467,376
1766369,366,468,376
1766370,366,469,377
1766371,366,467,374
1766372,368,467,375
1766373,365,469,374
1766374,367,468,374
1766375,366,468,375
1766376,366,470,375
1766377,366,469,377
1766378,366,469,376
1766379,366,470,377
1766380,368,470,377
1766381,368,467,377
1766382,369,469,378
1766383,368,469,377
1766384,367,471,377
1766385,367,472,377
1766386,368,470,376
1766387,368,471,376
1766388,366,471,376
1766389,367,470,374
1766390,366,469,375
1766391,365,468,376
1766392,365,469,376
1766393,366,470,376
1766394,366,469,377
1766395,366,470,376
1766396,368,469,377
1766397,369,470,378
1766398,368,470,378
1766399,369,470,379
1766400,369,470,378
1766401,368,471,379
1766402,368,468,380
1766403,368,472,380
1766404,368,472,378
1766405,368,473,378
1766406,369,473,377
1766407,367,471,377
1766408,367,470,377
1766409,368,472,377
1766410,366,472,377
1766411,366,471,377
1766412,365,468,376
1766413,368,471,376
1766414,369,469,377
1766415,368,469,378
1766416,367,468,377
1766417,369,469,378
1766418,369,470,380
1766419,370,472,379
1766420,370,471,379
1766421,370,475,379
1766422,371,472,380
1766423,371,472,380
1766424,369,472,379
1766425,370,472,379
1766426,370,471,378
1766427,368,473,378
1766428,370,473,376
1766429,368,472,378
1766430,367,473,378
1766431,367,470,379
1766432,368,472,378
1766433,369,470,378
1766434,370,470,380
1766435,369,470,379
1766436,370,472,380
1766437,369,471,379
1766438,369,472,380
1766439,371,471,380
1766440,370,471,380
1766441,369,474,380
1766442,369,473,379
1766443,369,473,379
1766444,370,474,378
1766445,369,473,381
1766446,369,474,377
1766447,369,473,377
1766448,368,470,380
1766449,368,474,378
1766450,369,473,380
1766451,367,472,377
1766452,370,473,379
1766453,367,472,377
1766454,369,472,378
1766455,369,473,379
1766456,370,472,380
1766457,369,472,378
1766458,369,472,380
1766459,368,472,381
1766460,370,474,380
1766461,370,473,381
1766462,367,475,379
1766463,368,474,379
1766464,367,473,378
1766465,368,472,378
1766466,369,472,379
1766467,369,473,377
1766468,368,472,378
1766469,369,473,378
1766470,367,473,377
1766471,369,473,380
1766472,370,472,377
1766473,369,473,378
1766474,369,474,379
1766475,368,470,378
1766476,369,470,379
1766477,370,470,380
1766478,370,469,380
1766479,371,473,381
1766480,370,474,379
1766481,369,474,380
1766482,372,473,380
1766483,371,476,381
1766484,370,476,380
1766485,370,478,381
1766486,370,475,381
1766487,369,476,380
1766488,369,477,380
1766489,370,475,381
1766490,369,475,382
1766491,370,476,380
1766492,369,474,382
1766493,370,474,380
1766494,371,474,382
1766495,371,475,380
1766496,372,476,381
1766497,370,474,382
1766498,372,475,382
1766499,372,475,381
1766500,371,475,382
1766501,369,475,382
1766502,370,476,381
1766503,371,476,381
1766504,369,474,381
1766505,371,475,380
1766506,369,472,381
1766507,371,472,379
1766508,370,471,378
1766509,369,473,379
1766510,369,473,380
1766511,370,471,379
1766512,368,471,379
1766513,370,474,380
1766514,369,474,379
1766515,370,474,380
1766516,370,474,380
1766517,370,475,381
1766518,371,476,381
1766519,371,474,380
1766520,370,476,380
1766521,371,475,382
1766522,369,475,380
1766523,369,475,381
1766524,370,474,380
1766525,369,475,380
1766526,369,475,380
1766527,370,470,378
1766528,368,475,379
1766529,371,473,379
1766530,370,473,377
1766531,369,476,380
1766532,368,473,378
1766533,370,473,378
1766534,370,472,379
1766535,369,475,379
1766536,370,471,379
1766537,371,472,380
1766538,370,474,381
1766539,370,473,379
1766540,372,475,381
1766541,372,474,381
1766542,372,473,382
1766543,370,474,381
1766544,371,473,379
1766545,369,476,379
1766546,369,475,378
1766547,368,475,379
1766548,370,475,378
1766549,370,474,379
1766550,370,473,379
1766551,371,475,380
1766552,369,471,380
1766553,369,473,381
1766554,371,471,381
1766555,369,474,380
1766556,370,476,380
1766557,370,480,381
1766558,370,475,381
1766559,371,475,382
1766560,371,472,382
1766561,372,478,382
1766562,370,475,383
1766563,371,473,382
1766564,369,475,381
1766565,371,474,378
1766566,369,474,377
1766567,369,473,378
1766568,369,471,378
1766569,370,471,379
1766570,369,472,378
1766571,369,472,378
1766572,370,472,379
1766573,370,474,380
1766574,370,474,380
1766575,369,474,380
1766576,371,476,380
1766577,372,473,382
1742213007957,NEW REP,,
1766578,370,477,382
1766579,373,477,382
1766580,371,476,383
1766581,372,477,384
1766582,372,477,383
1766583,371,473,383
1766584,372,476,382
1766585,371,475,382
1766586,370,475,381
1766587,372,476,380
1766588,371,475,380
1766589,371,475,380
1766590,369,474,379
1766591,371,473,380
1766592,371,475,380
1766593,370,474,379
1766594,370,473,380
1766595,369,475,381
1766596,372,475,381
1766597,372,475,381
1766598,372,476,382
1766599,372,480,383
1766600,375,480,384
1766601,373,479,386
1766602,373,482,385
1766603,375,483,385
1766604,374,482,386
1766605,375,480,385
1766606,374,478,384
1766607,374,477,382
1766608,371,478,383
1766609,372,475,381
1766610,371,475,379
1766611,371,475,380
1766612,370,475,381
1766613,370,474,379
1766614,369,474,379
1766615,371,474,381
1766616,371,475,382
1766617,371,474,381
1766618,370,473,382
1766619,371,474,381
1766620,372,471,381
1766621,372,474,381
1766622,371,474,381
1766623,371,475,379
1766624,369,473,378
1766625,369,474,379
1766626,370,472,378
1766627,367,472,378
1766628,367,471,377
1766629,366,472,377
1766630,366,471,377
1766631,366,470,377
1766632,367,471,377
1766633,366,469,376
1766634,368,470,377
1766635,368,469,377
1766636,368,471,379
1766637,369,472,380
1766638,369,471,380
1766639,369,471,380
1766640,371,476,380
1766641,371,475,381
1766642,371,474,380
1766643,371,475,381
1766644,370,475,380
1766645,370,471,380
1766646,369,473,380
1766647,368,474,379
1766648,369,473,378
1766649,369,472,378
1766650,368,470,379
1766651,369,472,379
1766652,369,473,378
1766653,369,475,377
1766654,370,473,381
1766655,370,477,382
1766656,372,475,382
1766657,372,478,384
1766658,373,478,383
1766659,374,479,384
1766660,373,477,383
1766661,373,479,384
1766662,373,479,383
1766663,373,482,384
1766664,374,480,384
1766665,374,478,383
1766666,374,482,384
1766667,373,479,384
1766668,372,480,382
1766669,375,481,383
1766670,374,479,383
1766671,374,480,383
1766672,374,478,385
1766673,373,478,386
1766674,374,480,383
1766675,374,478,384
1766676,374,476,383
1766677,373,478,384
1766678,374,476,384
1766679,374,477,386
1766680,373,477,385
1766681,375,481,384
1766682,374,480,387
1766683,374,482,386
1766684,376,480,385
1766685,375,478,385
1766686,374,477,382
1766687,372,477,383
1766688,371,474,382
1766689,369,472,379
1766690,369,470,379
1766691,370,471,377
1766692,367,469,378
1766693,367,470,378
1766694,368,469,376
1766695,367,469,377
1766696,367,467,376
1766697,367,468,377
1766698,367,467,378
1766699,366,467,377
1766700,365,470,377
1766701,366,469,376
1766702,367,467,377
1766703,368,469,377
1766704,367,471,376
1766705,365,471,377
1766706,365,470,376
1766707,365,472,376
1766708,366,470,377
1766709,365,471,376
1766710,364,470,375
1766711,365,468,376
1766712,365,468,377
1766713,365,469,376
1766714,367,468,377
1766715,366,468,376
1766716,365,468,376
1766717,365,465,377
1766718,365,467,376
1766719,367,466,378
1766720,365,466,377
1766721,366,470,377
1766722,368,471,377
1766723,369,474,377
1766724,369,475,378
1766725,369,470,378
1766726,370,476,381
1766727,370,476,380
1766728,371,476,381
1766729,370,475,380
1766730,370,476,380
1766731,369,475,380
1766732,371,480,381
1766733,372,480,382
1766734,374,482,384
1766735,375,482,385
1766736,376,480,384
1766737,375,480,384
1766738,376,479,385
1766739,376,480,386
1766740,375,478,385
1766741,375,477,384
1766742,375,478,383
1766743,373,476,384
1766744,372,478,382
1766745,372,476,382
1766746,372,473,382
1766747,370,476,381
1766748,371,476,382
1766749,371,476,381
1766750,372,476,380
1766751,371,476,382
1766752,370,476,381
1766753,371,476,380
1766754,372,476,381
1766755,374,477,382
1766756,372,477,383
1766757,372,478,382
1766758,373,477,383
1766759,372,478,384
1766760,373,472,382
1766761,371,473,383
1766762,371,472,379
1766763,369,470,379
1766764,368,469,377
1766765,366,467,376
1766766,366,467,374
1766767,365,467,375
1766768,365,465,376
1766769,365,467,374
1766770,365,464,373
1766771,365,464,374
1766772,363,467,374
1766773,364,465,373
1766774,365,465,376
1766775,364,464,374
1766776,364,466,373
1766777,364,467,375
1766778,364,468,375
1766779,366,468,376
1766780,367,471,378
1766781,369,474,378
1766782,368,474,377
1766783,368,474,378
1766784,369,472,377
1766785,368,472,378
1766786,366,470,376
1766787,365,467,375
1766788,364,467,374
1766789,364,466,374
1766790,365,466,373
1766791,362,465,372
1766792,363,465,372
1766793,363,463,372
1766794,362,463,372
1766795,363,463,372
1766796,363,463,373
1766797,363,462,371
1766798,363,462,374
1766799,363,462,373
1766800,363,461,373
1766801,363,462,374
1766802,365,466,373
1766803,364,468,375
1766804,366,471,376
1766805,367,471,376
1766806,366,474,376
1766807,367,473,376
1766808,367,472,376
1766809,367,473,378
1766810,370,473,377
1766811,369,474,377
1766812,369,470,380
1766813,369,470,380
1766814,369,468,380
1766815,370,470,379
1766816,367,471,378
1766817,368,468,379
1766818,367,467,378
1766819,368,467,377
1766820,367,466,376
1766821,367,465,375
1766822,365,466,375
1766823,363,467,373
1766824,365,465,373
1766825,364,465,374
1766826,363,466,372
1766827,362,465,371
1766828,364,465,375
1766829,364,464,374
1766830,364,468,374
1766831,368,472,376
1766832,368,474,375
1766833,368,472,377
1766834,367,471,378
1766835,367,470,377
1766836,367,467,376
1766837,365,462,374
1766838,365,462,375
1766839,364,461,375
1766840,364,461,374
1766841,363,461,373
1766842,364,464,373
1766843,363,466,374
1766844,362,466,373
1766845,363,464,372
1766846,364,465,373
1766847,362,465,372
1766848,361,463,371
1766849,359,464,371
1766850,361,461,370
1766851,360,461,370
1766852,361,461,371
1766853,361,462,372
1766854,362,461,371
1766855,362,461,371
1766856,363,460,370
1766857,362,459,370
1766858,362,456,371
1766859,360,459,370
1766860,360,460,369
1766861,360,461,370
1766862,362,461,370
1766863,362,461,371
1766864,361,461,371
1766865,362,463,372
1766866,362,462,371
1766867,362,464,371
1766868,364,466,373
1766869,365,470,373
1766870,365,471,376
1766871,366,473,377
1766872,368,470,378
1766873,369,471,378
1766874,371,474,380
1766875,370,476,382
1766876,371,474,382
1766877,371,471,382
1766878,372,473,383
1766879,370,469,380
1766880,369,470,379
1766881,370,471,380
1766882,369,471,378
1766883,368,472,379
1766884,368,471,378
1766885,368,470,376
1766886,367,468,375
1766887,365,464,374
1766888,365,464,373
1766889,363,465,372
1766890,363,460,372
1766891,364,464,371
1766892,363,464,373
1766893,362,461,372
1766894,360,460,370
1766895,359,464,369
1766896,360,461,371
1766897,360,464,372
1766898,363,469,373
1766899,366,475,376
1766900,369,480,380
1766901,371,480,383
1766902,371,481,382
1766903,371,477,382
1766904,372,473,378
1766905,368,469,378
1766906,365,463,374
1766907,363,458,373
1766908,360,456,370
1766909,359,455,369
1766910,357,455,368
1766911,359,456,367
1766912,358,454,366
1766913,357,452,367
1766914,357,452,367
1766915,358,455,368
1766916,358,459,368
1766917,359,459,369
1766918,361,464,371
1766919,362,464,372
1766920,363,466,371
1766921,366,471,374
1766922,366,471,376
1766923,367,469,376
1766924,365,468,376
1766925,364,466,374
1766926,364,464,373
1766927,361,461,370
1766928,360,457,369
1766929,357,453,367
1766930,358,454,365
1766931,357,458,366
1766932,356,460,367
1766933,360,463,370
1766934,362,465,370
1766935,365,469,373
1766936,367,471,377
1766937,368,473,377
1766938,368,473,377
1766939,369,469,378
1766940,366,466,378
1766941,366,466,377
1766942,361,459,373
1766943,361,456,370
1766944,358,455,367
1766945,359,456,368
1766946,359,456,367
1766947,357,458,367
1766948,360,458,366
1766949,355,459,367
1766950,356,458,366
1766951,359,459,366
1766952,358,455,367
1766953,357,454,367
1766954,357,451,366
1766955,355,451,365
1766956,355,450,364
1766957,355,450,364
1766958,355,451,366
1766959,356,456,367
1766960,359,461,369
1766961,360,463,370
1766962,361,465,372
1766963,362,465,372
1766964,364,468,372
1766965,363,465,374
1766966,364,467,374
1766967,363,466,372
1766968,363,463,372
1766969,361,462,371
1766970,362,460,370
1766971,361,461,369
1766972,361,462,371
1766973,360,462,372
1766974,361,463,372
1766975,363,463,373
1766976,362,462,371
1766977,363,461,372
1766978,361,459,373
1766979,360,459,371
1766980,361,462,368
1766981,361,467,374
1766982,365,475,376
1766983,368,480,379
1766984,370,481,380
1766985,371,482,382
1766986,371,480,382
1766987,372,476,381
1766988,370,469,380
1766989,367,467,377
1766990,365,467,376
1766991,365,463,373
1766992,362,465,373
1766993,363,463,374
1766994,363,463,372
1766995,364,462,373
1766996,363,460,373
1766997,363,457,372
1766998,361,458,372
1766999,362,455,369
1767000,359,454,368
1767001,358,452,366
1767002,355,452,365
1767003,356,452,366
1767004,356,453,364
1767005,354,454,363
1767006,354,450,364
1767007,354,448,363
1767008,355,452,363
1767009,355,456,366
1767010,357,461,367
1767011,361,464,370
1767012,360,465,372
1767013,361,465,371
1767014,362,464,370
1767015,362,462,372
1767016,362,458,371
1767017,362,457,371
1767018,358,456,369
1767019,359,457,368
1767020,358,457,368
1767021,358,458,367
1767022,359,458,368
1767023,359,457,368
1767024,358,460,366
1767025,359,461,369
1767026,361,463,369
1767027,362,464,370
1767028,361,462,372
1767029,362,465,372
1767030,362,465,373
1767031,362,462,370
1767032,362,463,372
1767033,361,462,373
1767034,361,459,371
1767035,361,462,370
1767036,361,459,372
1767037,361,461,372
1767038,361,461,372
1767039,362,461,372
1767040,363,461,372
1767041,362,461,372
1767042,361,461,371
1767043,362,465,372
1767044,362,465,374
1767045,362,460,371
1767046,362,461,370
1767047,360,460,367
1767048,360,457,368
1767049,358,455,366
1767050,358,456,366
1767051,358,455,365
1767052,359,455,367
1767053,358,453,367
1767054,359,455,367
1767055,359,459,368
1767056,361,462,371
1767057,361,463,371
1767058,363,463,371
1767059,363,463,372
1767060,361,464,372
1767061,362,466,373
1767062,364,470,375
1767063,366,474,376
1767064,367,472,377
1767065,367,471,376
1767066,366,468,375
1767067,365,461,374
1767068,363,460,371
1767069,361,456,370
1767070,358,454,369
1767071,358,454,368
1767072,357,452,364
1767073,357,456,367
1767074,358,455,366
1767075,359,457,368
1767076,358,460,369
1767077,359,459,368
1767078,359,455,369
1767079,360,454,369
1767080,359,453,367
1767081,359,455,368
1767082,357,452,365
1767083,355,452,364
1767084,355,450,362
1767085,355,452,365
1767086,355,455,364
1767087,354,455,364
1767088,354,456,366
1767089,358,459,365
1767090,358,461,368
1767091,359,462,369
1767092,361,462,371
1767093,360,461,371
1767094,361,459,370
1767095,361,457,370
1767096,361,456,369
1767097,360,456,369
1767098,360,461,371
1767099,360,464,372
1767100,363,465,372
1767101,364,464,373
1767102,363,461,373
1767103,361,460,372
1767104,360,458,369
1767105,360,456,368
1767106,357,453,367
1767107,357,454,366
1767108,356,455,365
1767109,357,454,366
1767110,357,453,366
1767111,357,456,365
1767112,358,455,367
1767113,359,456,368
1767114,359,463,372
1767115,363,466,371
1767116,364,468,374
1767117,366,468,375
1767118,366,469,376
1767119,366,466,375
1767120,363,459,374
1767121,361,456,369
1767122,360,456,369
1767123,359,459,370
1767124,362,465,370
1767125,363,469,373
1767126,364,472,375
1767127,366,474,376
1767128,368,471,376
1767129,366,467,376
1767130,366,462,374
1767131,363,461,373
1767132,361,454,370
1767133,360,452,367
1767134,359,450,368
1767135,358,453,367
1767136,357,452,367
