Time (ms),Bicep,Shoulder,Tricep
14745,354,459,366
14746,360,457,374
14747,370,459,382
14748,373,459,389
14749,385,460,402
14750,394,463,415
14751,395,463,416
14752,388,464,407
14753,381,464,397
14754,371,466,384
14755,364,465,374
14756,358,465,366
14757,351,465,359
14758,345,464,351
14759,336,463,337
14760,329,462,327
14761,326,460,327
14762,333,459,335
14763,340,460,345
14764,352,458,358
14765,359,460,367
14766,362,459,373
14767,369,459,382
14768,374,460,391
14769,387,457,405
14770,394,462,414
14771,396,463,416
14772,390,462,407
14773,382,465,397
14774,370,463,383
14775,364,465,374
14776,359,465,367
14777,351,461,357
14778,346,464,350
14779,335,462,335
14780,328,461,325
14781,326,461,325
14782,331,460,334
14783,340,459,344
14784,350,459,357
14785,359,460,368
14786,363,460,373
14787,370,459,384
14788,375,459,391
14789,387,459,405
14790,393,461,414
14791,398,465,415
14792,388,464,407
14793,383,463,397
14794,371,464,384
14795,363,465,375
14796,358,466,368
14797,352,464,357
14798,346,463,352
14799,336,461,338
14800,328,458,327
14801,326,460,326
14802,331,460,333
14803,339,459,343
14804,349,460,359
14805,357,457,367
14806,361,459,373
14807,369,459,384
14808,375,460,392
14809,385,460,403
14810,394,458,414
14811,394,463,416
14812,390,463,407
14813,382,463,398
14814,372,464,383
14815,364,465,375
14816,358,464,368
14817,352,465,357
14818,346,465,352
14819,335,463,337
14820,327,462,328
14821,326,461,326
14822,333,459,334
14823,338,459,344
14824,351,456,357
14825,355,457,365
14826,365,458,373
14827,369,458,383
14828,374,459,389
14829,385,460,403
14830,394,461,413
14831,396,461,415
14832,389,462,407
14833,382,463,399
14834,372,463,383
14835,363,464,373
14836,358,462,366
14837,351,465,357
14838,346,463,350
14839,336,461,337
14840,328,463,326
14841,327,461,325
14842,333,460,332
14843,338,457,343
14844,349,459,356
14845,359,457,366
14846,362,457,374
14847,370,459,383
14848,374,460,389
14849,387,460,403
14850,393,462,413
14851,396,459,416
14852,389,462,408
14853,382,464,399
14854,372,464,383
14855,364,462,374
14856,359,463,367
14857,352,464,359
14858,346,461,350
14859,335,462,337
14860,326,462,327
14861,325,460,326
14862,332,461,334
14863,337,459,341
14864,349,457,356
14865,356,457,365
14866,360,459,372
14867,370,458,380
14868,375,459,389
14869,386,459,404
14870,393,462,412
14871,396,462,417
14872,391,463,408
14873,383,465,399
14874,371,460,384
14875,365,466,375
14876,357,466,367
14877,352,464,358
14878,346,463,351
14879,336,462,338
14880,330,462,328
14881,326,460,324
14882,332,461,334
14883,340,459,343
14884,349,457,357
14885,358,457,365
14886,360,459,372
14887,369,459,383
14888,373,457,388
14889,386,460,403
14890,392,461,413
14891,392,461,417
14892,390,461,408
14893,383,464,400
14894,372,463,384
14895,364,464,374
14896,359,464,368
14897,350,463,358
14898,346,462,351
14899,335,460,337
14900,328,462,327
14901,327,460,325
14902,331,460,332
14903,337,458,341
14904,349,456,356
14905,356,457,365
14906,362,460,372
14907,371,459,379
14908,374,459,389
14909,386,460,403
14910,392,461,414
14911,395,462,416
14912,391,463,408
14913,382,463,399
14914,373,465,385
14915,364,466,375
14916,359,465,369
14917,351,466,357
14918,347,464,352
14919,338,464,339
14920,329,460,327
14921,326,464,325
14922,331,461,333
14923,338,459,341
14924,348,456,355
14925,355,458,365
14926,361,451,371
14927,368,458,381
14928,373,459,388
14929,385,459,402
14930,391,461,411
14931,394,460,415
14932,390,462,407
14933,383,462,398
14934,372,463,384
14935,365,465,375
14936,359,465,370
14937,351,465,358
14938,347,463,352
14939,338,463,339
14940,330,459,328
14941,325,460,325
14942,331,459,333
14943,339,458,341
14944,348,460,353
14945,356,456,366
14946,363,458,372
14947,369,459,382
14948,374,459,387
14949,384,457,401
14950,393,460,412
14951,395,462,416
14952,390,462,410
14953,383,464,400
14954,372,464,386
14955,365,464,375
14956,360,462,369
14957,352,463,358
14958,348,462,352
14959,336,462,338
14960,327,461,328
14961,326,457,324
14962,331,458,331
14963,337,458,338
14964,348,457,353
14965,355,458,364
14966,361,455,371
14967,370,458,381
14968,374,458,387
14969,384,458,401
14970,392,457,412
14971,395,462,415
14972,391,460,408
14973,383,463,399
14974,374,464,384
14975,366,462,375
14976,358,464,368
14977,353,463,358
14978,346,464,352
14979,337,461,339
14980,329,460,329
14981,324,460,324
14982,330,460,330
14983,340,460,340
14984,347,458,353
14985,355,458,364
14986,361,459,372
14987,369,456,380
14988,373,460,388
14989,385,461,402
14990,393,462,411
14991,396,463,418
14992,390,465,410
14993,385,464,401
14994,374,463,385
14995,365,462,376
14996,358,462,369
14997,351,463,359
14998,346,463,352
14999,337,459,338
15000,328,461,329
15001,324,461,324
15002,329,459,331
15003,337,459,339
15004,348,455,353
15005,355,456,363
15006,361,459,370
15007,367,458,380
15008,373,458,386
15009,383,460,399
15010,392,460,410
15011,395,462,415
15012,391,462,410
15013,384,465,400
15014,374,465,385
15015,367,465,375
15016,358,464,368
15017,352,463,358
15018,346,463,353
15019,338,461,339
15020,331,461,329
15021,326,460,324
15022,331,460,330
15023,337,459,340
15024,347,459,354
15025,354,458,363
15026,360,459,373
15027,368,456,381
15028,373,460,387
15029,383,460,400
15030,392,460,411
15031,394,463,416
15032,391,461,410
15033,383,464,401
15034,372,464,385
15035,365,465,377
15036,360,463,368
15037,353,464,359
15038,347,463,353
15039,337,463,339
15040,329,461,330
15041,324,459,325
15042,330,460,331
15043,336,456,339
15044,348,459,353
15045,355,457,363
15046,361,458,371
15047,365,458,382
15048,373,460,386
15049,381,459,399
15050,391,461,410
15051,396,459,417
15052,392,462,410
15053,383,465,403
15054,375,464,388
15055,366,462,376
15056,360,464,368
15057,352,464,359
15058,347,462,353
15059,338,461,341
15060,331,462,329
15061,326,461,324
15062,330,459,330
15063,335,459,340
15064,348,458,353
15065,355,458,364
15066,363,458,373
15067,367,457,381
15068,373,460,388
15069,382,459,401
15070,390,460,411
15071,396,461,417
15072,391,462,411
15073,385,461,401
15074,374,464,387
15075,366,460,377
15076,358,465,368
15077,352,462,358
15078,347,462,353
15079,336,462,339
15080,329,459,329
15081,326,460,323
15082,328,457,329
15083,336,457,339
15084,346,459,350
15085,355,456,361
15086,360,458,372
15087,367,458,380
15088,373,459,386
15089,382,459,402
15090,392,461,409
15091,395,463,416
15092,393,464,410
15093,384,463,402
15094,376,467,389
15095,367,466,377
15096,360,466,369
15097,353,466,361
15098,347,464,354
15099,340,463,343
15100,332,463,332
15101,327,462,326
15102,329,462,330
15103,336,459,339
15104,347,459,354
15105,354,457,364
15106,361,456,371
15107,368,459,381
15108,371,458,385
15109,382,461,400
15110,390,460,409
15111,395,460,417
15112,393,462,411
15113,386,463,401
15114,375,463,387
15115,367,463,378
15116,359,463,368
15117,354,462,359
15118,348,463,354
15119,340,461,341
15120,331,461,331
15121,326,461,325
15122,329,459,330
15123,336,459,339
15124,347,456,351
15125,354,458,361
15126,360,457,371
15127,368,458,380
15128,371,457,385
15129,381,457,399
15130,388,459,407
15131,395,459,414
15132,392,462,411
15133,385,460,401
15134,373,463,387
15135,367,462,378
15136,359,461,369
15137,351,464,358
15138,348,462,353
15139,339,462,341
15140,331,461,330
15141,325,459,325
15142,329,456,329
15143,336,458,337
15144,346,458,350
15145,352,457,361
15146,361,458,370
15147,366,458,378
15148,371,458,385
15149,381,460,399
15150,390,459,409
15151,394,460,416
15152,394,461,412
15153,386,461,401
15154,376,462,388
15155,368,464,377
15156,361,463,369
15157,353,463,361
15158,349,465,354
15159,340,464,343
15160,332,462,331
15161,327,459,326
15162,329,459,329
15163,336,457,339
15164,346,459,350
15165,353,457,362
15166,361,459,370
15167,367,456,379
15168,372,459,385
15169,382,459,397
15170,389,461,408
15171,394,459,417
15172,392,460,412
15173,385,462,402
15174,376,463,388
15175,367,463,377
15176,358,463,368
15177,353,462,360
15178,348,460,353
15179,339,460,340
15180,332,461,331
15181,325,458,325
15182,327,458,327
15183,335,458,337
15184,344,456,350
15185,352,457,359
15186,359,457,370
15187,364,457,379
15188,371,460,385
15189,379,459,396
15190,388,458,408
15191,396,460,414
15192,391,460,412
15193,386,460,402
15194,375,463,389
15195,365,463,379
15196,359,462,369
15197,352,463,360
15198,348,463,352
15199,339,461,342
15200,332,462,332
15201,327,460,324
15202,328,459,329
15203,334,458,336
15204,344,457,350
15205,351,457,359
15206,359,455,369
15207,366,457,377
15208,371,458,384
15209,380,459,396
15210,386,459,407
15211,393,460,416
15212,393,461,411
15213,383,460,401
15214,375,461,389
15215,368,463,377
15216,361,460,369
15217,352,461,362
15218,348,463,355
15219,339,460,341
15220,332,461,330
15221,325,458,323
15222,325,461,327
15223,335,456,336
15224,345,457,349
15225,352,454,360
15226,360,457,369
15227,365,457,377
15228,371,458,384
15229,378,459,397
15230,389,460,407
15231,395,460,416
15232,393,461,413
15233,385,464,402
15234,376,462,390
15235,366,462,377
15236,360,461,368
15237,354,463,360
15238,348,462,353
15239,339,462,343
15240,331,461,331
15241,325,460,323
15242,328,459,328
15243,334,457,336
15244,343,457,349
15245,352,456,358
15246,359,457,369
15247,366,456,377
15248,372,457,383
15249,380,457,396
15250,387,460,406
15251,394,461,414
15252,392,460,411
15253,385,461,401
15254,376,463,390
15255,367,462,379
15256,361,463,370
15257,354,463,361
15258,349,462,352
15259,341,462,343
15260,332,459,331
15261,324,456,324
15262,326,457,325
15263,333,457,336
15264,343,455,348
15265,351,457,359
15266,359,456,369
15267,365,456,377
15268,370,456,384
15269,379,458,395
15270,387,460,406
15271,394,460,414
15272,393,461,411
15273,385,462,401
15274,375,462,390
15275,367,461,379
15276,358,462,370
15277,352,464,361
15278,347,461,354
15279,340,462,344
15280,332,460,333
15281,324,459,324
15282,327,455,326
15283,334,458,335
15284,342,457,347
15285,352,456,358
15286,359,455,369
15287,364,457,377
15288,370,458,384
15289,377,458,394
15290,386,459,405
15291,394,461,413
15292,393,463,414
15293,385,460,402
15294,377,462,390
15295,367,462,380
15296,359,464,369
15297,354,461,360
15298,347,461,354
15299,341,461,344
15300,331,459,332
15301,324,459,324
15302,327,459,327
15303,334,458,336
15304,342,457,349
15305,351,456,359
15306,357,457,369
15307,364,453,377
15308,370,457,383
15309,379,456,395
15310,387,459,405
15311,394,461,413
15312,396,461,413
15313,388,462,402
15314,379,462,392
15315,368,464,379
15316,360,463,368
15317,355,460,361
15318,349,463,355
15319,343,462,345
15320,333,461,334
15321,325,461,325
15322,327,459,327
15323,334,455,335
15324,342,456,347
15325,351,456,357
15326,359,456,368
15327,365,456,375
15328,370,458,383
15329,377,457,394
15330,387,458,405
15331,394,458,414
15332,393,461,412
15333,385,461,403
15334,377,463,391
15335,367,462,378
15336,359,463,369
15337,354,462,360
15338,348,460,354
15339,340,461,344
15340,331,460,332
15341,324,460,324
15342,325,458,325
15343,332,456,333
15344,339,457,346
15345,350,457,358
15346,358,456,368
15347,363,454,374
15348,369,456,381
15349,376,456,392
15350,386,457,403
15351,392,459,413
15352,393,460,411
15353,385,459,403
15354,376,462,391
15355,367,463,379
15356,360,461,370
15357,354,459,361
15358,347,460,354
15359,341,460,344
15360,331,459,332
15361,325,457,323
15362,323,457,324
15363,331,456,333
15364,339,457,345
15365,348,454,358
15366,358,455,368
15367,364,452,374
15368,368,454,381
15369,376,455,391
15370,385,456,403
15371,392,456,412
15372,392,459,411
15373,386,461,403
15374,375,460,390
15375,366,461,379
15376,359,461,368
15377,354,462,361
15378,348,459,354
15379,341,459,344
15380,332,458,332
15381,324,457,323
15382,325,457,324
15383,331,456,334
15384,339,455,345
15385,350,456,356
15386,358,453,365
15387,362,451,374
15388,368,455,379
15389,375,455,391
15390,385,454,403
15391,393,457,413
15392,393,456,412
15393,386,457,402
15394,377,460,390
15395,365,458,378
15396,359,461,369
15397,353,461,361
15398,348,461,353
15399,341,461,344
15400,332,457,333
15401,323,457,324
15402,325,457,325
15403,330,455,334
15404,339,454,343
15405,348,455,356
15406,357,455,366
15407,363,455,374
15408,368,455,382
15409,375,458,391
15410,385,454,402
15411,393,458,411
15412,392,458,411
15413,385,460,402
15414,379,461,392
15415,368,462,378
15416,360,461,369
15417,354,461,363
15418,348,460,352
15419,342,460,344
15420,332,457,332
15421,323,457,324
15422,323,457,323
15423,333,456,334
15424,339,455,344
15425,349,455,356
15426,355,456,365
15427,361,456,372
15428,368,456,381
15429,376,455,391
15430,385,459,404
15431,392,459,413
15432,394,459,414
15433,387,460,402
15434,378,462,393
15435,367,462,379
15436,361,462,368
15437,356,463,361
15438,348,462,353
15439,343,462,346
15440,331,460,334
15441,325,456,323
15442,325,455,324
15443,330,455,334
15444,340,457,345
15445,350,457,358
15446,358,456,366
15447,362,457,373
15448,369,457,383
15449,375,458,392
15450,386,460,403
15451,395,461,413
15452,394,462,414
15453,387,464,405
15454,380,464,394
15455,370,465,382
15456,362,465,370
15457,356,463,364
15458,351,463,357
15459,345,463,349
15460,334,462,335
15461,326,459,325
15462,326,461,326
15463,332,458,336
15464,342,457,346
15465,351,459,358
15466,359,458,369
15467,363,460,375
15468,370,459,383
15469,375,458,391
15470,386,459,403
15471,394,460,415
15472,395,462,414
15473,388,462,405
15474,380,463,395
15475,370,462,382
15476,363,464,371
15477,358,463,364
15478,349,463,355
15479,345,461,350
15480,334,459,335
15481,325,457,324
15482,326,459,325
15483,333,459,335
15484,340,458,343
15485,350,457,357
15486,359,457,366
15487,363,458,373
15488,370,458,383
15489,375,458,390
15490,384,460,405
15491,394,462,413
15492,394,461,415
15493,387,462,405
15494,380,463,395
15495,368,462,383
15496,362,460,371
15497,355,463,364
15498,349,461,355
15499,344,462,346
15500,333,460,334
15501,325,460,324
15502,325,458,325
15503,334,459,334
15504,341,457,343
15505,351,456,357
15506,358,457,368
15507,362,457,374
15508,370,457,383
15509,376,459,389
15510,385,458,405
15511,394,460,415
15512,394,460,416
15513,387,463,406
15514,381,465,395
15515,371,464,382
15516,363,460,372
15517,358,465,366
15518,350,464,356
15519,344,462,348
15520,334,460,333
15521,326,460,323
15522,325,457,323
15523,332,459,332
15524,340,458,344
15525,350,458,358
15526,358,455,367
15527,363,458,374
15528,371,458,384
15529,376,460,391
15530,387,459,405
15531,393,461,416
15532,397,456,415
15533,389,462,405
15534,381,461,395
15535,369,464,382
15536,361,464,372
15537,357,464,365
15538,348,461,355
15539,345,463,350
15540,335,462,335
15541,327,461,326
15542,325,460,326
15543,334,460,335
15544,342,455,345
15545,351,460,358
15546,359,457,369
15547,363,460,373
15548,372,455,384
15549,375,459,391
15550,386,460,405
15551,393,461,415
15552,395,461,415
15553,389,461,406
15554,380,463,394
15555,371,465,383
15556,362,460,372
15557,358,463,367
15558,349,463,356
15559,345,463,351
15560,335,463,337
15561,327,459,325
15562,326,459,326
15563,332,460,334
15564,340,456,344
15565,349,457,355
15566,358,457,366
15567,363,456,373
15568,371,457,383
15569,375,459,390
15570,385,460,403
15571,394,461,416
15572,396,462,416
15573,389,463,407
15574,382,464,398
15575,372,465,385
15576,364,465,373
15577,358,467,367
15578,352,461,358
15579,348,464,352
15580,335,464,336
15581,328,461,327
15582,327,462,326
15583,334,460,335
15584,340,460,344
15585,351,460,359
15586,358,461,368
15587,365,460,377
15588,372,459,385
15589,376,463,391
15590,389,463,405
15591,396,464,415
15592,398,466,419
15593,391,465,410
15594,384,467,399
15595,372,467,386
15596,366,468,376
15597,361,466,367
15598,352,464,359
15599,348,466,353
15600,338,465,339
15601,329,463,328
15602,328,464,328
15603,336,463,335
15604,341,460,347
15605,353,462,359
15606,359,463,369
15607,365,462,375
15608,372,463,385
15609,378,462,393
15610,387,464,407
15611,397,462,417
15612,399,465,418
15613,392,466,410
15614,385,468,400
15615,375,465,385
15616,367,466,378
15617,361,469,368
15618,354,468,361
15619,350,468,354
15620,339,467,339
15621,330,466,329
15622,328,464,328
15623,333,462,338
15624,341,462,346
15625,353,463,359
15626,361,462,369
15627,366,461,375
15628,373,462,385
15629,379,462,394
15630,389,465,407
15631,396,465,418
15632,399,468,419
15633,393,470,411
15634,387,468,402
15635,375,470,387
15636,367,470,378
15637,361,469,370
15638,355,469,361
15639,350,468,354
15640,339,468,341
15641,330,466,330
15642,329,464,330
15643,336,464,337
15644,341,464,348
15645,354,461,361
15646,361,463,371
15647,366,462,377
15648,375,461,387
15649,379,465,391
15650,390,465,409
15651,397,470,419
15652,400,465,421
15653,395,470,412
15654,387,468,403
15655,375,470,388
15656,368,470,379
15657,363,470,373
15658,356,466,361
15659,349,470,355
15660,340,469,342
15661,332,466,332
15662,329,466,329
15663,335,465,336
15664,344,464,346
15665,354,460,359
15666,361,462,370
15667,366,462,375
15668,373,461,386
15669,380,465,393
15670,389,464,407
15671,397,466,417
15672,402,468,420
15673,393,469,413
15674,387,469,404
15675,377,466,388
15676,368,470,378
15677,364,467,371
15678,355,469,362
15679,350,468,354
15680,339,466,342
15681,333,463,331
15682,329,464,327
15683,334,464,336
15684,340,462,344
15685,351,461,359
15686,359,458,369
15687,363,461,375
15688,373,462,385
15689,375,462,391
15690,386,464,405
15691,394,464,414
15692,397,465,419
15693,392,466,410
15694,385,467,401
15695,373,466,386
15696,366,466,376
15697,360,465,369
15698,352,467,359
15699,347,466,354
15700,338,462,339
15701,329,465,330
15702,326,462,325
15703,332,461,334
15704,339,459,343
15705,351,461,357
15706,359,461,367
15707,363,458,373
15708,372,460,385
15709,375,462,389
15710,387,462,405
15711,394,462,415
15712,399,464,418
15713,392,464,410
15714,386,466,401
15715,373,466,386
15716,367,466,377
15717,360,465,370
15718,352,466,359
15719,348,465,353
15720,338,463,340
15721,330,462,330
15722,327,462,326
15723,331,461,334
15724,338,459,342
15725,349,459,355
15726,356,460,364
15727,361,458,373
15728,370,458,383
15729,374,459,388
15730,384,461,403
15731,393,460,414
15732,397,461,418
15733,390,463,409
15734,384,464,401
15735,372,461,385
15736,365,464,376
15737,360,463,367
15738,353,464,358
15739,346,463,352
15740,337,463,339
15741,330,459,328
15742,327,461,325
15743,331,459,332
15744,339,459,340
15745,348,459,355
15746,356,458,364
15747,362,458,373
15748,369,457,381
15749,373,458,389
15750,383,460,400
15751,391,460,412
15752,395,461,417
15753,389,462,410
15754,382,464,401
15755,371,462,384
15756,364,463,375
15757,359,462,367
15758,351,463,357
15759,347,459,352
15760,335,460,338
15761,328,462,329
15762,325,458,325
15763,329,458,331
15764,335,457,338
15765,347,455,352
15766,353,455,362
15767,361,455,369
15768,367,455,379
15769,371,457,386
15770,382,456,399
15771,390,459,411
15772,393,457,414
15773,388,460,409
15774,382,460,399
15775,370,462,383
15776,364,460,374
15777,360,460,366
15778,351,462,355
15779,345,461,349
15780,336,462,338
15781,328,462,327
15782,326,459,324
15783,330,460,331
15784,337,457,339
15785,348,457,354
15786,355,453,364
15787,360,457,371
15788,369,457,381
15789,372,457,385
15790,384,458,398
15791,391,460,410
15792,394,460,416
15793,390,461,409
15794,383,461,399
15795,372,462,386
15796,365,463,375
15797,358,462,366
15798,353,462,356
15799,346,462,352
15800,336,458,339
15801,328,459,327
15802,324,455,324
15803,329,459,330
15804,336,456,340
15805,346,455,353
15806,353,456,362
15807,359,456,369
15808,368,456,380
15809,373,456,385
15810,382,457,400
15811,390,459,409
15812,394,461,415
15813,390,461,409
15814,383,462,400
15815,373,462,385
15816,366,462,376
15817,360,463,367
15818,352,462,358
15819,345,462,352
15820,337,461,340
15821,328,461,328
15822,323,458,324
15823,328,458,331
15824,336,456,340
15825,347,455,354
15826,353,455,362
15827,360,453,371
15828,367,456,380
15829,372,457,385
15830,384,457,399
15831,391,457,410
15832,394,460,414
15833,391,462,408
15834,383,462,399
15835,372,462,385
15836,365,462,376
15837,358,463,367
15838,351,462,359
15839,346,461,352
15840,337,460,339
15841,328,460,329
15842,325,458,324
15843,329,457,330
15844,335,457,338
15845,347,457,351
15846,353,455,362
15847,361,455,371
15848,367,456,379
15849,372,458,386
15850,382,458,398
15851,390,460,408
15852,394,460,415
15853,391,461,409
15854,383,462,400
15855,373,463,387
15856,365,464,375
15857,359,465,368
15858,351,463,358
15859,347,460,353
15860,337,464,340
15861,331,461,329
15862,325,460,326
15863,330,459,331
15864,337,457,339
15865,347,457,352
15866,355,456,362
15867,360,457,369
15868,368,456,380
15869,372,457,386
15870,382,459,400
15871,390,459,411
15872,395,460,415
15873,391,462,411
15874,385,460,401
15875,374,465,387
15876,365,462,378
15877,361,463,370
15878,352,464,359
15879,348,462,353
15880,338,462,340
15881,331,460,329
15882,325,459,325
15883,328,460,329
15884,336,459,340
15885,345,458,354
15886,352,457,361
15887,362,456,371
15888,368,456,380
15889,373,457,386
15890,381,459,400
15891,390,459,411
15892,396,459,415
15893,392,461,411
15894,384,463,401
15895,374,464,386
15896,368,463,377
15897,359,465,367
15898,353,460,359
15899,347,461,353
15900,339,459,342
15901,331,460,331
15902,325,459,323
15903,330,459,329
15904,336,457,339
15905,345,456,351
15906,354,457,361
15907,361,457,369
15908,367,458,379
15909,372,458,385
15910,380,459,399
15911,390,462,410
15912,394,463,416
15913,392,463,410
15914,384,463,401
15915,374,464,388
15916,368,466,377
15917,360,465,369
15918,353,462,359
15919,350,464,354
15920,339,463,341
15921,331,458,330
15922,325,461,325
15923,330,460,331
15924,338,457,340
15925,347,458,352
15926,353,458,362
15927,360,455,369
15928,369,458,379
15929,371,458,385
15930,382,459,399
15931,389,459,408
15932,397,462,415
15933,392,461,412
15934,384,462,400
15935,375,464,387
15936,366,462,377
15937,360,464,369
15938,353,461,360
15939,348,464,354
15940,340,460,341
15941,331,461,330
15942,325,460,323
15943,328,460,329
15944,335,458,339
15945,345,456,352
15946,353,458,361
15947,362,456,370
15948,369,455,378
15949,373,459,385
15950,380,460,397
15951,390,461,408
15952,396,460,416
15953,392,462,411
15954,384,461,401
15955,372,464,387
15956,366,461,377
15957,360,462,368
15958,354,461,360
15959,348,460,353
15960,340,460,341
15961,331,461,330
15962,325,459,323
15963,328,459,330
15964,336,456,339
15965,344,454,352
15966,353,457,362
15967,359,454,369
15968,367,458,379
15969,372,458,384
15970,380,458,397
15971,389,457,408
15972,395,462,416
15973,392,461,411
15974,385,461,401
15975,375,462,388
15976,365,459,377
15977,359,462,368
15978,352,460,359
15979,347,461,353
15980,337,461,342
15981,330,459,331
15982,326,460,322
15983,329,458,329
15984,335,457,338
15985,345,456,350
15986,354,454,361
15987,360,455,370
15988,366,456,376
15989,371,457,385
15990,381,459,397
15991,389,459,407
15992,393,459,416
15993,391,462,410
15994,385,462,402
15995,373,463,389
15996,367,463,379
15997,359,464,369
15998,353,463,360
15999,347,462,354
16000,340,460,342
16001,330,460,331
16002,325,459,325
16003,328,457,328
16004,335,455,336
16005,343,455,349
16006,352,458,361
16007,360,457,369
16008,366,454,378
16009,370,457,384
16010,380,458,396
16011,387,460,406
16012,394,460,413
16013,391,460,409
16014,384,461,401
16015,375,461,389
16016,366,464,378
16017,358,464,367
16018,352,463,359
16019,347,458,353
16020,338,460,341
16021,332,459,331
16022,326,460,324
16023,326,458,327
16024,334,455,336
16025,344,456,349
16026,352,455,359
16027,358,455,369
16028,365,456,377
16029,371,458,383
16030,380,458,396
16031,387,460,407
16032,393,459,413
16033,392,461,412
16034,385,463,401
16035,375,461,388
16036,365,461,378
16037,360,463,367
16038,352,463,359
16039,348,462,354
16040,340,461,342
16041,331,459,333
16042,325,460,324
16043,326,457,327
16044,333,457,336
16045,343,456,348
16046,352,454,359
16047,359,456,370
16048,366,457,377
16049,370,458,384
16050,377,457,396
16051,387,460,407
16052,394,458,414
16053,393,461,412
16054,386,461,403
16055,376,462,389
16056,366,462,379
16057,359,464,368
16058,353,462,361
16059,347,463,355
16060,340,461,344
16061,332,460,333
16062,325,460,323
16063,328,459,328
16064,334,456,339
16065,344,456,350
16066,352,457,360
16067,360,457,369
16068,367,458,378
16069,371,455,384
16070,380,457,396
16071,388,457,408
16072,395,461,414
16073,394,461,413
16074,387,462,403
16075,377,462,391
16076,367,464,380
16077,359,464,368
16078,354,461,363
16079,349,462,355
16080,341,462,344
16081,331,461,333
16082,327,459,325
16083,326,460,328
16084,335,458,337
16085,343,456,348
16086,352,456,359
16087,359,454,368
16088,366,456,377
16089,371,457,384
16090,380,458,396
16091,387,458,406
16092,395,458,415
16093,393,461,412
16094,386,462,402
16095,377,463,392
16096,366,461,381
16097,360,463,371
16098,355,465,361
16099,347,463,354
16100,342,461,344
16101,333,461,334
16102,325,458,324
16103,327,459,327
16104,336,457,338
16105,343,458,348
16106,352,459,357
16107,360,457,370
16108,365,456,376
16109,371,456,384
16110,379,460,394
16111,388,459,406
16112,395,461,415
16113,394,463,413
16114,386,461,404
16115,377,463,391
16116,367,463,379
16117,359,463,369
16118,355,464,361
16119,348,463,354
16120,342,463,344
16121,333,461,334
16122,326,459,325
16123,326,456,327
16124,333,457,335
16125,341,457,347
16126,350,458,359
16127,358,460,368
16128,364,458,377
16129,372,459,385
16130,379,460,395
16131,389,461,407
16132,396,462,416
16133,393,459,413
16134,387,461,404
16135,379,464,393
16136,369,462,379
16137,362,464,369
16138,356,460,363
16139,348,463,355
16140,341,463,344
16141,333,459,334
16142,326,461,324
16143,326,460,326
16144,334,459,336
16145,342,456,346
16146,350,457,358
16147,360,457,369
16148,364,457,376
16149,369,457,383
16150,378,457,394
16151,386,458,404
16152,395,459,415
16153,394,462,413
16154,388,462,405
16155,378,461,394
16156,368,463,382
16157,359,464,370
16158,356,464,363
16159,348,463,356
16160,342,461,346
16161,333,461,334
16162,324,461,324
16163,325,459,326
16164,333,457,335
16165,341,456,346
16166,351,457,357
16167,358,455,367
16168,365,454,376
16169,371,457,383
16170,376,457,392
16171,387,460,404
16172,395,461,414
16173,393,462,413
16174,386,461,403
16175,378,462,393
16176,369,464,380
16177,362,464,370
16178,356,463,362
16179,349,463,354
16180,341,462,345
16181,333,459,335
16182,325,458,325
16183,326,457,326
16184,333,457,335
16185,343,457,348
16186,351,457,358
16187,359,456,370
16188,364,456,376
16189,369,457,384
16190,377,456,392
16191,387,459,404
16192,394,460,413
16193,393,461,412
16194,386,461,401
16195,378,461,392
16196,369,464,379
16197,360,463,369
16198,354,463,362
16199,349,463,355
16200,343,462,347
16201,332,461,334
16202,324,461,324
16203,325,458,327
16204,334,458,335
16205,340,458,348
16206,350,457,358
16207,359,457,368
16208,364,459,375
16209,370,457,382
16210,377,458,394
16211,387,458,406
16212,392,461,416
16213,393,461,413
16214,387,462,403
16215,378,462,390
16216,368,463,379
16217,360,463,370
16218,357,463,363
16219,350,460,354
16220,344,461,347
16221,333,460,335
16222,325,457,324
16223,325,455,327
16224,333,457,334
16225,341,457,345
16226,349,455,358
16227,358,456,367
16228,363,456,375
16229,370,456,382
16230,376,458,393
16231,384,460,404
16232,395,459,415
16233,396,462,414
16234,388,463,404
16235,379,462,392
16236,370,463,382
16237,363,462,371
16238,355,463,363
16239,350,463,355
16240,344,461,346
16241,333,458,334
16242,326,460,325
16243,326,455,324
16244,333,457,334
16245,340,456,344
16246,350,456,358
16247,357,456,367
16248,363,456,373
16249,369,457,383
16250,375,459,391
16251,386,457,404
16252,393,459,414
16253,394,461,413
16254,387,462,404
16255,380,463,395
16256,367,463,380
16257,360,462,369
16258,354,464,363
16259,348,461,356
16260,343,461,348
16261,333,458,334
16262,323,459,323
16263,325,458,325
16264,333,459,334
16265,340,455,345
16266,351,456,358
16267,359,455,368
16268,362,455,374
16269,371,457,383
16270,375,458,393
16271,385,460,405
16272,394,459,413
16273,393,461,414
16274,388,462,406
16275,380,460,394
16276,369,464,381
16277,362,460,371
16278,357,463,365
16279,350,463,355
16280,344,461,347
16281,334,462,336
16282,323,459,324
16283,325,458,325
16284,332,458,334
16285,339,457,344
16286,349,455,357
16287,359,455,367
16288,363,456,373
16289,369,456,381
16290,373,457,391
16291,385,458,403
16292,395,461,414
16293,394,460,413
16294,386,462,403
16295,379,461,393
16296,370,462,382
16297,360,463,370
16298,357,462,365
16299,350,463,356
16300,343,460,348
16301,333,460,335
16302,325,459,325
16303,324,455,324
16304,332,457,334
16305,340,457,345
16306,350,456,357
16307,358,455,366
16308,364,456,373
16309,370,458,382
16310,374,457,389
16311,386,458,403
16312,394,458,413
16313,394,462,415
16314,387,457,405
16315,380,461,395
16316,370,461,381
16317,361,463,370
16318,356,463,365
16319,349,461,355
16320,345,460,349
16321,333,461,335
16322,325,459,325
16323,324,460,325
16324,332,459,335
16325,341,459,344
16326,351,457,357
16327,358,456,367
16328,363,457,373
16329,370,457,383
16330,374,458,390
16331,386,458,404
16332,394,460,413
16333,394,461,415
16334,389,464,406
16335,381,463,396
16336,371,463,381
16337,362,463,372
16338,358,463,366
16339,350,463,356
16340,344,463,348
16341,335,461,335
16342,327,459,325
16343,327,459,325
16344,333,458,335
16345,340,457,345
16346,350,457,356
16347,356,457,368
16348,363,456,373
16349,368,457,383
16350,374,458,390
16351,385,459,403
16352,394,462,413
16353,396,462,416
16354,388,461,405
16355,381,462,396
16356,370,464,382
16357,361,463,373
16358,356,462,365
16359,349,463,355
16360,344,462,350
16361,333,462,335
16362,325,457,326
16363,325,456,325
16364,330,459,333
16365,341,456,344
16366,349,457,354
16367,358,454,366
16368,362,456,373
16369,370,456,384
16370,375,456,390
16371,385,459,403
16372,395,461,414
16373,395,458,414
16374,389,463,405
16375,381,462,395
16376,370,462,382
16377,362,460,373
16378,359,463,366
16379,349,463,355
16380,344,464,350
16381,332,462,336
16382,326,459,325
16383,326,460,326
16384,332,457,335
16385,340,458,344
16386,349,457,357
16387,357,457,367
16388,363,455,373
16389,370,457,382
16390,374,458,389
16391,385,457,403
16392,392,460,415
16393,395,461,415
16394,389,461,406
16395,381,463,397
16396,368,463,381
16397,363,463,373
16398,359,465,366
16399,350,462,357
16400,345,462,350
16401,337,463,337
16402,327,461,326
16403,326,460,326
16404,333,459,334
16405,340,459,344
16406,350,458,356
16407,358,458,367
16408,361,457,373
16409,371,459,383
16410,375,459,389
16411,385,458,404
16412,393,459,415
16413,396,461,417
16414,389,460,408
16415,381,462,396
16416,369,464,380
16417,363,463,372
16418,357,463,365
16419,350,465,357
16420,344,463,349
16421,333,461,335
16422,327,461,326
16423,326,459,323
16424,331,456,333
16425,339,456,342
16426,349,458,356
16427,357,457,366
16428,362,458,373
16429,370,460,383
16430,375,458,389
16431,384,459,403
16432,392,459,413
16433,395,458,415
16434,388,462,406
16435,382,463,398
16436,371,463,383
16437,364,462,373
16438,358,463,366
16439,350,463,357
16440,346,458,349
16441,335,461,337
16442,327,458,326
16443,326,458,325
16444,331,457,332
16445,340,458,344
16446,349,459,355
16447,357,458,367
16448,362,459,373
16449,368,456,382
16450,375,458,389
16451,385,460,404
16452,393,461,412
16453,396,462,416
16454,389,462,407
16455,382,464,397
16456,371,462,384
16457,365,463,374
16458,360,466,367
16459,351,464,358
16460,347,460,351
16461,337,463,338
16462,329,461,327
16463,328,460,326
16464,333,457,334
16465,339,459,343
16466,349,456,356
16467,358,459,366
16468,363,457,371
16469,369,459,382
16470,375,460,390
16471,385,462,404
16472,392,461,412
16473,395,461,417
16474,392,462,410
16475,383,463,398
16476,372,466,383
16477,365,466,375
16478,359,465,368
16479,351,465,359
16480,346,462,352
16481,335,462,337
16482,328,464,327
16483,325,459,325
16484,332,459,333
16485,338,457,342
16486,348,459,357
16487,355,457,367
16488,362,457,372
16489,370,456,382
16490,373,460,389
16491,385,458,404
16492,393,460,412
16493,396,461,417
16494,390,463,407
16495,382,463,399
16496,373,463,385
16497,364,463,375
16498,358,466,368
16499,351,464,357
16500,347,463,352
16501,336,459,337
16502,328,462,327
16503,327,458,325
16504,332,458,333
16505,338,458,340
16506,350,457,354
16507,357,457,365
16508,360,458,372
16509,370,457,382
16510,375,458,388
16511,384,457,403
16512,394,461,412
16513,397,460,415
16514,391,463,409
16515,382,463,398
16516,371,463,384
16517,364,463,374
16518,358,462,368
16519,350,463,356
16520,346,462,350
16521,336,462,338
16522,328,460,327
16523,325,459,325
16524,330,458,332
16525,339,460,341
16526,348,457,356
16527,356,458,366
16528,362,454,371
16529,370,458,381
16530,373,457,387
16531,384,457,400
16532,393,460,412
16533,396,462,416
16534,391,463,408
16535,382,463,400
16536,373,463,385
16537,366,464,376
16538,359,465,368
16539,351,464,357
16540,347,463,351
16541,337,460,338
16542,329,463,328
16543,326,457,324
16544,331,457,331
16545,338,458,340
16546,349,459,354
16547,356,459,364
16548,363,459,373
16549,369,459,383
16550,373,459,388
16551,385,461,402
16552,394,462,412
16553,397,462,417
16554,390,462,409
16555,383,462,398
16556,373,466,384
16557,365,463,376
16558,358,463,367
16559,350,463,356
16560,345,463,351
16561,335,460,339
16562,329,458,328
16563,325,458,324
16564,331,459,332
16565,338,458,341
16566,349,458,355
16567,356,458,366
16568,361,458,373
16569,369,459,381
16570,373,459,389
16571,383,458,402
16572,394,460,412
16573,395,462,417
16574,390,463,408
16575,384,464,400
16576,373,464,385
16577,365,464,374
16578,359,465,368
16579,352,462,358
16580,346,462,353
16581,337,461,338
16582,329,460,329
16583,326,459,325
16584,330,459,332
16585,338,459,341
16586,348,457,355
16587,355,458,364
16588,361,458,372
16589,370,460,382
16590,374,459,388
16591,383,460,402
16592,394,456,411
16593,396,462,415
16594,392,461,408
16595,381,462,399
16596,372,463,385
16597,365,463,374
16598,359,462,368
16599,351,465,357
16600,348,463,352
16601,338,461,337
16602,329,458,329
16603,325,461,324
16604,330,458,333
16605,337,458,341
16606,346,457,353
16607,355,457,364
16608,361,457,371
16609,368,457,382
16610,374,452,386
16611,384,459,403
16612,393,460,412
16613,395,461,416
16614,391,462,410
16615,385,463,399
16616,374,463,386
16617,365,463,376
16618,358,461,367
16619,352,463,359
16620,347,460,353
16621,337,460,339
16622,328,462,327
16623,325,459,323
16624,330,458,332
16625,336,457,342
16626,348,458,353
16627,355,457,363
16628,362,458,371
16629,370,458,383
16630,373,458,389
16631,383,458,401
16632,391,462,410
16633,396,462,415
16634,392,463,410
16635,384,462,400
16636,373,462,386
16637,365,464,376
16638,358,464,368
16639,352,462,360
16640,347,462,353
16641,337,463,340
16642,330,461,329
16643,326,457,326
16644,330,459,331
16645,338,458,341
16646,348,458,355
16647,356,458,362
16648,362,454,371
16649,368,458,380
16650,372,458,387
16651,384,459,400
16652,391,460,410
16653,395,462,415
16654,391,461,409
16655,383,464,399
16656,375,463,386
16657,367,465,377
16658,359,462,368
16659,353,464,359
16660,346,463,354
16661,339,462,339
16662,330,460,329
16663,327,460,325
16664,329,461,331
16665,337,459,340
16666,346,458,354
16667,357,457,364
16668,362,460,373
16669,370,458,383
16670,375,460,388
16671,384,461,403
16672,392,460,412
16673,396,463,416
16674,394,461,412
16675,385,464,402
16676,374,463,385
16677,367,463,378
16678,359,464,370
16679,353,464,359
16680,349,465,354
16681,339,463,341
16682,331,461,329
16683,326,461,326
16684,329,458,332
16685,338,459,342
16686,347,459,355
16687,355,459,364
16688,361,459,374
16689,371,460,382
16690,374,458,388
16691,385,462,401
16692,392,461,411
16693,397,464,418
16694,392,464,411
16695,386,463,402
16696,375,466,387
16697,366,462,378
16698,362,465,371
16699,355,464,361
16700,348,464,354
16701,340,463,341
16702,331,461,332
16703,328,462,327
16704,331,460,332
16705,338,460,342
16706,348,460,355
16707,355,459,363
16708,361,460,372
16709,369,457,383
16710,374,460,387
16711,384,460,401
16712,391,462,412
16713,397,463,419
16714,394,463,411
16715,386,464,404
16716,376,467,390
16717,368,466,380
16718,361,467,371
16719,353,466,361
16720,350,465,356
16721,340,463,342
16722,332,461,333
16723,328,463,327
16724,331,462,331
16725,337,460,341
16726,348,460,354
16727,355,459,364
16728,363,460,373
16729,370,460,382
16730,374,460,388
16731,384,461,401
16732,392,464,413
16733,396,464,416
16734,394,469,413
16735,387,465,403
16736,376,463,389
16737,369,467,380
16738,362,467,371
16739,354,466,362
16740,350,464,356
16741,341,465,345
16742,335,466,334
16743,327,463,328
16744,332,465,332
16745,338,462,342
16746,348,461,354
16747,355,463,364
16748,364,462,374
16749,370,461,384
16750,376,462,389
16751,384,463,401
16752,392,465,412
16753,399,465,420
16754,396,463,413
16755,388,467,404
16756,377,466,390
16757,370,467,381
16758,362,468,372
16759,355,468,363
16760,351,468,357
16761,341,466,344
16762,334,464,334
16763,328,464,327
16764,331,463,332
16765,339,461,342
16766,348,457,354
16767,356,462,365
16768,364,461,375
16769,371,462,383
16770,376,463,389
16771,386,463,402
16772,393,464,412
16773,400,466,418
16774,394,466,415
16775,388,468,405
16776,378,468,391
16777,372,466,381
16778,363,468,372
16779,355,467,364
16780,351,464,356
16781,341,466,344
16782,333,464,333
16783,327,462,327
16784,329,460,330
16785,336,461,341
16786,347,460,353
16787,356,459,362
16788,362,460,370
16789,369,460,382
16790,375,459,387
16791,384,460,400
16792,391,461,411
16793,397,463,416
16794,393,464,412
16795,387,462,403
16796,377,465,390
16797,369,467,379
16798,362,465,371
16799,353,466,362
16800,350,461,355
16801,340,464,342
16802,333,462,332
16803,326,458,325
16804,328,461,330
16805,336,459,338
16806,346,458,352
16807,353,452,361
16808,361,460,370
16809,368,457,379
16810,373,459,387
16811,380,461,399
16812,390,460,409
16813,397,462,418
16814,394,462,413
16815,387,464,403
16816,377,465,391
16817,368,466,379
16818,361,462,369
16819,354,463,361
16820,348,465,355
16821,340,459,343
16822,332,460,332
16823,326,461,325
16824,328,460,329
16825,335,457,338
16826,345,455,350
16827,354,458,361
16828,361,457,369
16829,367,458,378
16830,373,459,385
16831,381,460,398
16832,389,459,408
16833,397,462,416
16834,392,464,413
16835,387,464,402
16836,377,463,390
16837,368,465,379
16838,361,465,370
16839,355,464,361
16840,350,463,354
16841,341,461,343
16842,332,461,333
16843,326,459,325
16844,328,460,330
16845,336,457,339
16846,345,455,350
16847,352,459,361
16848,361,458,370
16849,365,458,379
16850,373,459,385
16851,380,460,398
16852,390,460,409
16853,395,461,416
16854,393,463,412
16855,387,463,403
16856,376,462,389
16857,366,464,378
16858,360,464,369
16859,353,462,361
16860,348,462,353
16861,341,460,343
16862,331,460,332
16863,327,460,325
16864,327,458,328
16865,335,458,337
16866,345,455,349
16867,353,456,360
16868,359,457,371
16869,366,454,377
16870,371,455,385
16871,379,457,395
16872,388,459,407
16873,395,460,415
16874,393,462,411
16875,386,462,402
16876,376,461,390
16877,368,463,379
16878,360,464,369
16879,353,462,361
16880,349,461,353
16881,341,463,343
16882,332,460,332
16883,324,458,324
16884,328,456,328
16885,335,458,336
16886,343,458,349
16887,352,457,361
16888,360,457,369
16889,364,456,376
16890,371,456,385
16891,380,455,395
16892,389,458,407
16893,395,459,415
16894,392,461,412
16895,388,461,402
16896,377,462,390
16897,368,464,380
16898,360,462,368
16899,353,464,363
16900,349,460,353
16901,340,461,343
16902,332,460,333
16903,325,458,326
16904,327,458,327
16905,333,454,336
16906,343,453,348
16907,352,456,360
16908,359,457,370
16909,365,457,377
16910,371,457,384
16911,378,456,394
16912,388,457,406
16913,395,460,412
16914,392,461,411
16915,386,462,402
16916,377,461,389
16917,365,462,379
16918,359,463,368
16919,354,462,361
16920,349,463,354
16921,342,462,343
16922,332,462,332
16923,325,460,326
16924,328,459,327
16925,335,455,338
16926,344,457,348
16927,350,455,359
16928,358,457,368
16929,364,457,376
16930,371,455,383
16931,378,457,394
16932,388,458,404
16933,394,460,413
16934,393,459,413
16935,385,463,402
16936,378,462,391
16937,368,461,379
16938,360,463,370
16939,354,464,362
16940,348,461,356
16941,341,462,344
16942,333,459,333
16943,324,459,324
16944,326,456,328
16945,334,457,335
16946,343,454,348
16947,351,456,359
16948,359,457,369
16949,364,456,377
16950,369,456,385
16951,377,456,396
16952,388,459,406
16953,392,459,414
16954,390,460,412
16955,385,460,401
16956,377,461,389
16957,367,462,379
16958,360,459,367
16959,355,462,361
16960,347,459,354
16961,339,460,342
16962,331,459,332
16963,326,458,324
16964,327,457,326
16965,331,453,335
16966,339,455,346
16967,351,458,356
16968,358,454,366
16969,364,455,374
16970,370,455,383
16971,377,456,393
16972,387,457,404
16973,394,457,413
16974,391,460,410
16975,385,461,402
16976,378,461,391
16977,366,460,380
16978,361,463,370
16979,354,461,360
16980,348,459,353
16981,341,460,343
16982,332,456,331
16983,324,456,324
16984,325,452,326
16985,332,457,336
16986,340,455,346
16987,350,454,356
16989,366,453,376
16990,370,456,382
16991,378,458,394
16992,386,455,401
16992,391,458,411
16993,391,457,411
16994,385,461,402
16995,378,461,391
16996,368,460,382
16997,363,463,373
16998,357,462,367
16999,353,460,359
17000,348,462,354
17001,342,459,346
17002,332,458,333
17003,326,458,323
17004,325,456,325
17005,332,453,334
17006,340,457,346
17007,349,455,355
17008,358,455,367
17009,363,455,374
17010,368,456,382
17011,378,457,392
17012,387,454,404
17013,391,458,412
17014,393,460,412
17015,384,458,402
17016,377,461,390
17017,368,462,380
17018,358,461,369
17019,354,460,361
17020,348,464,353
17021,341,459,344
17022,333,458,333
17023,326,458,325
17024,324,458,323
17025,333,457,335
17026,340,455,345
17027,351,456,358
17028,358,453,367
17029,364,457,375
17030,370,455,384
17031,377,456,393
17032,386,457,405
17033,393,460,413
17034,393,459,413
17035,385,461,403
17036,377,461,393
17037,367,461,379
17038,360,461,370
17039,354,462,361
17040,347,460,354
17041,340,460,346
17042,331,460,333
17043,324,459,323
17044,323,454,324
17045,332,456,334
17046,341,457,345
17047,350,456,358
17048,357,456,366
17049,364,455,376
17050,370,458,383
17051,377,457,392
17052,385,458,404
17053,396,457,414
17054,393,459,413
17055,385,461,403
17056,377,461,393
17057,367,461,379
17058,359,460,370
17059,355,462,363
17060,348,460,353
17061,343,460,345
17062,331,459,333
17063,325,459,324
17064,326,456,325
17065,332,456,335
17066,340,455,344
17067,350,457,357
17068,357,457,368
17069,365,453,373
17070,368,457,382
17071,376,458,392
17072,386,459,403
17073,394,459,415
17074,394,460,414
17075,386,459,405
17076,380,461,394
17077,370,462,381
17078,360,462,371
17079,355,462,362
17080,348,462,355
17081,343,460,347
17082,333,457,335
17083,326,459,325
17084,325,458,325
17085,332,459,334
17086,341,456,344
17087,350,455,357
17088,358,453,367
17089,364,458,374
17090,371,458,383
17091,375,459,391
17092,386,459,404
17093,394,461,415
17094,395,462,415
17095,389,462,405
17096,379,464,395
17097,369,464,381
17098,362,464,370
17099,355,466,364
17100,348,463,355
17101,343,461,347
17102,333,461,333
17103,326,461,325
17104,327,459,326
17105,333,458,334
17106,342,457,345
17107,351,457,357
17108,358,456,369
17109,364,457,374
17110,370,458,383
17111,376,460,391
17112,386,460,404
17113,393,459,414
17114,395,458,414
17115,388,463,405
17116,379,463,394
17117,369,463,381
17118,361,461,372
17119,357,463,364
17120,349,463,355
17121,343,462,348
17122,335,461,336
17123,326,461,326
17124,325,460,326
17125,332,458,335
17126,340,457,343
17127,350,456,357
17128,356,454,365
17129,363,457,375
17130,369,456,381
17131,375,460,391
17132,385,456,405
17133,392,461,415
17134,394,461,414
17135,388,464,406
17136,381,460,395
17137,369,462,381
17138,360,464,373
17139,357,464,365
17140,352,463,356
17141,345,462,348
17142,334,462,335
17143,326,461,325
17144,327,459,324
17145,332,458,334
17146,341,457,344
17147,349,456,357
17148,358,456,368
17149,364,459,374
17150,371,459,383
17151,375,458,390
17152,385,457,405
17153,394,459,415
17154,395,461,416
17155,388,459,406
17156,382,464,395
17157,369,468,381
17158,363,464,372
17159,357,464,366
17160,351,466,358
17161,345,464,351
17162,335,463,337
17163,327,464,326
17164,327,462,327
17165,335,460,335
17166,341,459,345
17167,352,457,357
17168,359,458,369
17169,363,458,373
17170,371,458,382
17171,376,460,392
17172,387,458,406
17173,395,462,414
17174,396,461,417
17175,388,462,406
17176,382,462,394
17177,371,464,383
17178,362,463,372
17179,358,466,367
17180,352,466,357
17181,347,463,350
17182,336,463,338
17183,329,460,326
17184,327,462,326
17185,332,459,334
17186,342,456,345
17187,351,460,358
17188,357,458,368
17189,363,456,375
17190,370,458,382
17191,375,459,391
17192,386,459,405
17193,395,461,416
17194,396,462,416
17195,389,465,408
17196,381,464,397
17197,371,464,382
17198,362,465,374
17199,358,464,367
17200,351,467,358
17201,346,465,351
17202,335,462,337
17203,328,462,326
17204,326,457,326
17205,333,457,335
17206,339,460,343
17207,350,458,359
17208,359,456,367
17209,361,458,375
17210,370,460,384
17211,376,461,392
17212,387,461,405
17213,395,462,415
17214,395,463,416
17215,389,462,407
17216,382,464,397
17217,371,465,383
17218,364,466,373
17219,358,465,367
17220,351,465,358
17221,347,464,352
17222,336,463,338
17223,327,462,326
17224,326,462,327
17225,334,459,335
17226,340,460,345
17227,352,458,358
17228,357,459,368
17229,363,460,375
17230,371,459,383
17231,377,460,390
17232,387,462,405
17233,394,461,415
17234,396,463,415
17235,390,462,408
17236,383,464,398
17237,371,466,383
17238,364,466,375
17239,358,464,367
17240,351,464,358
17241,345,463,350
17242,337,461,338
17243,329,461,328
17244,326,459,325
17245,333,457,335
17246,340,459,344
17247,351,457,358
17248,359,457,366
17249,363,459,373
17250,370,457,383
17251,376,460,391
17252,387,461,405
17253,393,458,415
17254,396,462,415
17255,390,461,407
17256,383,464,399
17257,372,464,383
17258,364,466,374
17259,358,465,367
17260,351,465,358
17261,347,464,351
17262,337,463,337
17263,329,462,328
17264,327,461,325
17265,334,459,333
17266,340,458,344
17267,350,460,359
17268,360,458,367
17269,363,459,374
17270,372,460,384
17271,377,457,390
17272,388,460,403
17273,395,461,415
17274,396,462,417
17275,391,464,408
17276,384,466,398
17277,371,464,384
17278,364,464,374
17279,360,464,366
17280,351,464,357
17281,345,463,351
17282,335,463,337
17283,329,462,327
17284,325,460,326
17285,333,460,335
17286,339,460,343
17287,350,460,357
17288,358,460,368
17289,364,460,375
17290,371,460,385
17291,375,462,390
17292,386,461,404
17293,396,463,416
17294,395,463,417
17295,390,461,410
17296,384,463,398
17297,373,465,384
17298,365,464,374
17299,359,466,368
17300,352,465,358
17301,347,464,351
17302,337,462,338
17303,329,464,328
17304,326,460,325
17305,332,457,334
17306,340,458,343
17307,352,458,357
17308,359,457,367
17309,363,459,374
17310,372,457,384
17311,375,460,388
17312,387,460,404
17313,394,457,414
17314,396,461,416
17315,391,464,406
17316,384,465,398
17317,371,465,384
17318,364,465,374
17319,359,466,368
17320,351,465,358
17321,346,465,352
17322,336,463,338
17323,328,462,327
17324,326,462,326
17325,333,459,333
17326,337,458,342
17327,348,458,356
17328,356,459,366
17329,362,457,372
17330,372,459,383
17331,374,460,389
17332,386,465,404
17333,393,463,414
17334,395,463,416
17335,391,465,409
17336,383,463,398
17337,372,465,383
17338,364,463,375
17339,359,464,367
17340,348,465,357
17341,346,461,351
17342,335,462,337
17343,328,461,327
17344,325,460,324
17345,332,458,333
17346,338,459,343
17347,349,458,355
17348,356,458,365
17349,362,459,372
17350,371,458,383
17351,374,458,388
17352,384,459,401
17353,394,461,413
17354,396,462,416
17355,391,463,408
17356,383,464,399
17357,372,461,385
17358,365,462,375
17359,359,466,368
17360,352,463,357
17361,345,464,350
17362,337,461,336
17363,329,460,330
17364,326,461,324
17365,332,459,332
17366,339,460,341
17367,349,458,354
17368,356,458,364
17369,362,458,372
17370,369,458,382
17371,374,457,387
17372,384,460,402
17373,393,461,412
17374,396,460,416
17375,390,462,408
17376,384,464,400
17377,372,463,384
17378,366,469,375
17379,360,464,368
17380,352,462,360
17381,348,464,352
17382,337,463,337
17383,328,462,328
17384,327,460,326
17385,332,460,333
17386,338,460,341
17387,348,459,355
17388,357,459,365
17389,362,458,374
17390,369,459,381
17391,374,458,388
17392,385,458,401
17393,393,461,412
17394,397,461,417
17395,392,463,408
17396,383,465,401
17397,373,461,385
17398,366,464,376
17399,359,465,368
17400,351,460,358
17401,346,463,352
17402,337,461,339
17403,329,461,328
17404,325,459,326
17405,331,460,331
17406,336,458,342
17407,350,457,355
17408,354,458,364
17409,362,459,371
17410,370,459,381
17411,373,459,389
17412,384,460,402
17413,391,461,412
17414,396,463,416
17415,392,462,409
17416,384,464,400
17417,373,464,385
17418,365,464,376
17419,359,463,368
17420,352,464,359
17421,348,463,352
17422,337,462,338
17423,329,461,328
17424,324,460,325
17425,330,459,331
17426,337,459,341
17427,347,457,354
17428,356,457,365
17429,362,458,372
17430,370,459,382
17431,373,458,387
17432,384,458,401
17433,391,460,411
17434,397,461,416
17435,391,460,408
17436,384,464,400
17437,373,465,386
17438,366,463,374
17439,359,462,368
17440,351,461,358
17441,346,463,352
17442,338,462,339
17443,329,461,330
17444,327,460,326
17445,331,459,331
17446,339,457,341
17447,347,458,354
17448,356,457,364
17449,362,458,372
17450,367,458,381
17451,374,458,388
17452,384,459,400
17453,391,457,411
17454,396,462,416
17455,390,462,410
17456,383,462,399
17457,373,462,386
17458,366,461,377
17459,360,465,368
17460,352,461,358
17461,347,464,352
17462,338,461,339
17463,331,459,330
17464,326,458,324
17465,330,459,330
17466,338,458,341
17467,349,457,355
17468,356,457,365
17469,361,459,371
17470,369,458,381
17471,373,459,388
17472,383,457,401
17473,391,459,412
17474,394,461,416
17475,390,460,409
17476,384,460,401
17477,371,464,385
17478,366,466,376
17479,358,463,368
17480,352,463,358
17481,346,463,352
17482,337,462,340
17483,329,461,328
17484,324,460,324
17485,329,458,331
17486,337,458,340
17487,347,458,354
17488,354,456,363
17489,361,457,370
17490,367,457,381
17491,372,458,387
17492,382,459,400
17493,389,460,409
17494,395,462,416
17495,389,460,411
17496,384,467,401
17497,374,463,385
17498,364,463,376
17499,358,465,367
17500,352,461,358
17501,348,463,352
17502,337,461,339
17503,329,461,329
17504,325,458,323
17505,330,458,330
17506,336,459,339
17507,348,458,354
17508,355,456,363
17509,361,456,370
17510,369,457,380
17511,373,458,387
17512,382,458,401
17513,390,460,409
17514,396,460,415
17515,391,462,409
17516,385,463,401
17517,374,464,388
17518,367,463,377
17519,360,464,369
17520,353,464,359
17521,348,462,352
17522,338,460,339
17523,331,461,329
17524,326,462,324
17525,329,459,330
17526,335,458,339
17527,347,457,353
17528,356,459,363
17529,361,456,372
17530,368,458,382
17531,373,460,386
17532,384,460,400
17533,391,460,411
17534,396,460,416
17535,393,465,411
17536,385,464,402
17537,374,464,387
17538,366,466,376
17539,359,464,369
17540,353,465,360
17541,348,463,353
17542,339,463,341
17543,332,462,332
17544,327,462,327
17545,330,461,331
17546,336,459,339
17547,347,458,353
17548,355,460,363
17549,361,460,373
17550,369,459,381
17551,374,460,389
17552,384,457,401
17553,392,462,412
17554,398,463,417
17555,394,465,412
17556,387,467,403
17557,376,465,389
17558,369,467,379
17559,361,466,370
17560,355,466,360
17561,349,464,355
17562,342,466,343
17563,332,463,333
17564,327,463,327
17565,331,466,332
17566,337,460,342
17567,348,459,355
17568,357,461,364
17569,362,462,371
17570,369,460,382
17571,374,460,389
17572,384,462,401
17573,392,462,411
17574,398,465,418
17575,395,462,411
17576,387,464,404
17577,376,467,390
17578,369,468,379
17579,361,468,371
17580,356,466,362
17581,350,466,355
17582,341,465,343
17583,333,462,333
17584,328,465,327
17585,331,462,331
17586,338,461,340
17587,349,462,355
17588,357,460,363
17589,364,461,374
17590,370,461,382
17591,376,461,390
17592,385,461,401
17593,393,464,412
17594,398,465,418
17595,395,463,414
17596,388,465,405
17597,378,467,390
17598,370,469,382
17599,364,467,372
17600,356,469,363
17601,349,467,356
17602,341,465,343
17603,332,464,332
17604,330,465,329
17605,330,464,332
17606,338,464,340
17607,348,462,354
17608,356,461,363
17609,363,462,374
17610,370,461,382
17611,375,459,389
17612,384,461,401
17613,392,464,411
17614,398,466,418
17615,395,465,414
17616,385,467,404
17617,377,466,391
17618,369,467,381
17619,362,469,371
17620,355,466,363
17621,351,466,357
17622,342,464,346
17623,333,465,333
17624,327,463,328
17625,331,461,332
17626,339,462,342
17627,349,458,353
17628,356,459,364
17629,363,461,373
17630,370,459,382
17631,375,463,390
17632,383,464,400
17633,393,463,411
17634,398,464,417
17635,396,463,414
17636,389,466,405
17637,378,467,391
17638,370,463,381
17639,362,469,373
17640,358,463,362
17641,350,465,358
17642,342,465,345
17643,333,465,333
17644,329,464,329
17645,331,463,331
17646,338,461,340
17647,347,462,354
17648,355,462,364
17649,364,463,374
17650,370,460,382
17651,374,462,389
17652,383,462,400
17653,392,463,412
17654,398,465,416
17655,396,466,415
17656,389,467,405
17657,377,468,392
17658,371,468,382
17659,363,465,373
17660,355,467,364
17661,352,467,357
17662,342,468,344
17663,334,465,334
17664,329,464,328
17665,330,462,331
17666,339,463,341
17667,348,462,354
17668,356,459,363
17669,364,461,374
17670,370,459,382
17671,375,461,389
17672,386,463,401
17673,392,464,410
17674,397,465,418
17675,397,466,416
17676,387,468,405
17677,379,469,392
17678,370,468,381
17679,364,469,372
17680,358,467,364
17681,351,468,358
17682,342,467,345
17683,334,465,335
17684,327,464,327
17685,329,465,332
17686,339,464,342
17687,348,460,354
17688,356,461,364
17689,364,461,374
17690,368,463,380
17691,376,462,389
17692,382,463,400
17693,392,465,412
17694,399,465,418
17695,397,463,415
17696,390,467,406
17697,379,466,394
17698,371,470,383
17699,364,471,372
17700,359,468,365
17701,353,469,359
17702,343,467,345
17703,338,465,335
17704,328,467,329
17705,331,465,332
17706,339,462,340
17707,347,462,352
17708,356,462,363
17709,364,462,373
17710,370,462,381
17711,375,464,389
17712,382,463,400
17713,392,463,412
17714,399,466,420
17715,396,466,416
17716,390,468,406
17717,380,468,393
17718,369,468,383
17719,364,469,373
17720,357,468,365
17721,352,468,358
17722,345,466,346
17723,335,466,336
17724,329,466,327
17725,329,465,330
17726,337,463,340
17727,348,463,352
17728,355,462,363
17729,363,460,372
17730,368,458,382
17731,375,463,389
17732,383,464,400
17733,392,463,412
17734,398,465,419
17735,395,467,416
17736,389,468,406
17737,381,467,393
17738,372,466,384
17739,364,467,372
17740,357,468,365
17741,353,466,359
17742,344,465,347
17743,337,466,337
17744,330,464,327
17745,331,464,330
17746,338,462,339
17747,347,460,352
17748,355,461,362
17749,363,460,373
17750,368,461,381
17751,374,461,386
17752,384,463,398
17753,391,464,411
17754,398,464,419
17755,396,466,416
17756,388,468,407
17757,380,467,393
17758,370,466,381
17759,363,468,373
17760,358,467,364
17761,351,466,357
17762,346,466,347
17763,336,465,335
17764,328,463,328
17765,330,463,331
17766,337,463,339
17767,346,461,352
17768,355,462,362
17769,362,461,372
17770,367,460,378
17771,375,462,387
17772,381,461,397
17773,388,462,409
17774,398,464,417
17775,397,461,415
17776,388,465,405
17777,378,466,394
17778,369,464,382
17779,362,467,372
17780,357,466,364
17781,351,466,357
17782,344,465,347
17783,334,461,334
17784,327,463,326
17785,327,461,329
17786,335,461,340
17787,345,457,348
17788,353,459,361
17789,361,457,370
17790,367,458,378
17791,371,461,384
17792,377,460,395
17793,389,460,408
17794,396,461,415
17795,393,463,414
17796,388,463,404
17797,378,463,392
17798,370,464,381
17799,360,464,371
17800,358,465,366
17801,351,462,355
17802,345,460,346
17803,334,462,335
17804,327,461,325
17805,327,460,328
17806,335,459,336
17807,343,457,347
17808,353,458,360
17809,361,458,370
17810,365,459,377
17811,372,459,385
17812,378,461,394
17813,388,459,408
17814,395,461,416
17815,395,461,415
17816,387,463,404
17817,378,462,393
17818,370,465,380
17819,361,464,370
17820,356,465,364
17821,350,464,355
17822,343,460,347
17823,333,461,334
17824,327,461,326
17825,327,460,329
17826,335,460,337
17827,344,459,348
17828,353,460,359
17829,361,460,370
17830,366,459,378
17831,372,456,384
17832,379,459,396
17833,387,457,405
17834,395,462,415
17835,392,462,415
17836,388,462,404
17837,378,463,392
17838,367,463,380
17839,359,463,370
17840,355,462,363
17841,348,462,355
17842,343,462,345
17843,332,461,332
17844,325,459,324
17845,326,458,325
17846,332,457,333
17847,341,455,345
17848,351,455,358
17849,359,457,368
17850,364,457,375
17851,370,455,381
17852,377,458,392
17853,388,457,404
17854,393,459,413
17855,393,459,413
17856,386,458,402
17857,378,461,391
17858,369,462,381
17859,360,462,370
17860,354,462,360
17861,347,460,353
17862,344,461,347
17863,329,460,333
17864,322,458,322
17865,324,456,325
17866,330,454,333
17867,338,455,345
17868,349,454,357
17869,356,455,366
17870,363,455,374
17871,368,453,382
17872,375,456,390
17873,385,457,403
17874,392,458,411
17875,390,457,412
17876,384,459,402
17877,377,458,389
17878,365,460,377
17879,358,459,367
17880,355,457,360
17881,347,460,352
17882,341,457,343
17883,331,457,332
17884,323,456,321
17885,324,456,324
17886,331,454,333
17887,340,456,343
17888,349,454,357
17889,356,454,365
17890,360,454,374
17891,367,453,382
17892,375,454,391
17893,383,456,403
17894,393,457,414
17895,392,457,409
17896,385,458,400
17897,377,459,391
17898,366,458,379
17899,359,460,367
17900,353,457,361
17901,347,459,352
17902,340,458,343
17903,331,457,332
17904,323,456,321
17905,323,454,321
17906,330,453,331
17907,337,454,343
17908,347,454,355
17909,355,451,365
17910,360,452,371
17911,368,453,380
17912,374,454,387
17913,383,455,400
17914,390,456,411
17915,391,456,408
17916,384,458,401
17917,376,457,390
17918,366,457,377
17919,356,458,368
17920,353,458,361
17921,346,457,351
17922,340,457,343
17923,331,456,332
17924,324,454,319
17925,323,454,322
17926,329,454,332
17927,338,451,340
17928,348,452,352
17929,355,452,363
17930,359,451,371
17931,366,451,379
17932,372,451,387
17933,384,451,400
17934,390,456,410
17935,391,456,409
17936,383,457,401
17937,375,457,390
17938,365,458,378
17939,359,457,367
17940,352,458,360
17941,345,458,352
17942,340,457,344
17943,330,455,331
17944,324,455,320
17945,323,454,322
17946,329,453,331
17947,338,450,340
17948,348,450,353
17949,353,449,363
17950,360,452,371
17951,367,451,379
17952,372,453,387
17953,382,453,397
17954,391,453,409
17955,389,454,411
17956,382,457,401
17957,373,457,388
17958,364,457,377
17959,358,456,368
17960,353,455,360
17961,347,457,351
17962,341,455,346
17963,331,456,332
17964,323,455,321
17965,322,453,320
17966,329,451,330
17967,336,452,340
17968,345,452,354
17969,354,452,364
17970,359,451,371
17971,366,451,380
17972,373,450,387
17973,382,454,401
17974,390,456,410
17975,391,455,409
17976,384,456,401
17977,375,456,390
17978,366,458,376
17979,357,456,368
17980,352,457,360
17981,345,456,351
17982,339,457,343
17983,330,454,330
17984,322,455,320
17985,320,452,320
17986,329,452,330
17987,336,448,339
17988,345,452,353
17989,355,452,364
17990,360,452,370
17991,365,451,379
17992,371,452,386
17993,383,451,399
17994,389,453,411
17995,390,454,410
17996,385,455,401
17997,376,460,390
17998,367,457,377
17999,358,459,365
18000,353,457,362
18001,347,456,350
18002,339,458,345
18003,330,456,331
18004,322,455,321
18005,322,453,319
18006,329,452,329
18007,336,451,340
18008,346,449,353
18009,354,452,363
18010,359,451,368
18011,364,451,379
18012,372,452,385
18013,382,454,398
18014,390,454,411
18015,392,454,412
18016,384,453,401
18017,377,458,392
18018,365,459,377
18019,359,457,367
18020,355,456,361
18021,347,458,351
18022,341,457,345
18023,331,457,331
18024,323,455,321
18025,321,455,320
18026,329,449,329
18027,335,453,339
18028,346,453,352
18029,353,453,364
18030,359,452,370
18031,365,451,378
18032,372,454,385
18033,382,454,399
18034,390,453,410
18035,391,455,412
18036,385,457,402
18037,377,455,392
18038,367,457,380
18039,360,459,369
18040,353,458,361
18041,345,458,352
18042,342,458,346
18043,332,457,333
18044,323,457,322
18045,323,456,322
18046,330,453,330
18047,337,453,342
18048,348,453,354
18049,356,453,363
18050,359,455,371
18051,368,455,380
18052,373,453,386
18053,383,455,402
18054,391,457,412
18055,393,456,413
18056,386,456,403
18057,379,458,392
18058,368,459,378
18059,360,459,368
18060,354,460,363
18061,348,458,354
18062,341,458,346
18063,331,454,334
18064,324,457,322
18065,322,456,321
18066,328,454,331
18067,336,455,339
18068,346,453,354
18069,353,453,362
18070,360,453,369
18071,368,453,380
18072,372,450,386
18073,383,452,401
18074,390,455,410
18075,392,459,412
18076,385,455,403
18077,379,457,393
18078,367,459,381
18079,360,459,369
18080,354,460,362
18081,346,456,352
18082,342,459,347
18083,331,457,333
18084,323,456,322
18085,321,454,321
18086,329,455,329
18087,335,454,339
18088,345,451,353
18089,353,453,363
18090,359,449,369
18091,366,454,380
18092,372,454,387
18093,382,454,400
18094,390,452,410
18095,392,458,412
18096,387,456,403
18097,378,459,395
18098,368,461,379
18099,360,459,368
18100,354,461,364
18101,347,460,353
18102,343,460,348
18103,333,460,332
18104,327,457,324
18105,325,456,322
18106,330,456,331
18107,337,456,341
18108,348,455,355
18109,356,452,365
18110,361,455,370
18111,369,453,380
18112,373,455,388
18113,384,453,401
18114,391,457,414
18115,394,460,414
18116,387,460,405
18117,381,461,395
18118,370,461,381
18119,362,461,372
18120,357,461,367
18121,349,459,354
18122,344,462,347
18123,334,461,335
18124,327,459,326
18125,325,457,324
18126,330,457,332
18127,337,458,342
18128,349,456,356
18129,356,458,366
18130,361,456,373
18131,369,458,381
18132,373,459,388
18133,385,458,401
18134,394,460,413
18135,394,460,416
18136,389,462,407
18137,383,458,398
18138,371,464,384
18139,365,461,376
18140,357,464,369
18141,350,463,355
18142,346,462,351
18143,335,463,337
18144,329,459,327
18145,326,461,325
18146,333,460,334
18147,340,459,344
18148,348,458,355
18149,357,458,366
18150,362,459,374
18151,371,460,383
18152,376,461,390
18153,387,459,404
18154,393,461,416
18155,397,464,419
18156,391,465,409
18157,385,465,399
18158,373,466,385
18159,367,465,376
18160,360,468,367
18161,354,464,358
18162,348,465,354
18163,338,464,339
18164,329,463,329
18165,327,463,326
18166,332,460,335
18167,340,462,346
18168,349,461,357
18169,358,460,367
18170,363,458,373
18171,372,457,385
18172,377,463,391
18173,387,463,405
18174,396,463,414
18175,399,465,419
18176,393,464,410
18177,387,467,402
18178,373,466,388
18179,368,466,376
18180,362,466,370
18181,353,468,360
18182,349,466,355
18183,337,466,341
18184,331,465,330
18185,329,463,327
18186,334,464,336
18187,342,460,344
18188,351,463,358
18189,359,463,367
18190,366,460,375
18191,373,463,386
18192,377,463,393
18193,388,462,408
18194,396,465,416
18195,400,467,420
18196,394,468,413
18197,387,468,404
18198,377,470,389
18199,368,472,379
18200,362,469,371
18201,355,470,363
18202,350,469,355
18203,341,464,344
18204,333,468,332
18205,329,466,328
18206,335,466,336
18207,342,464,345
18208,351,463,359
18209,359,464,369
18210,365,463,378
18211,374,464,387
18212,379,465,392
18213,390,464,407
18214,398,464,418
18215,401,468,420
18216,396,470,413
18217,388,469,405
18218,376,470,389
18219,368,469,379
18220,363,471,372
18221,356,471,363
18222,352,470,357
18223,342,469,344
18224,334,467,333
18225,330,468,329
18226,335,466,338
18227,343,465,346
18228,354,464,360
18229,362,461,370
18230,366,464,377
18231,375,465,386
18232,380,466,394
18233,390,468,406
18234,396,468,417
18235,400,468,421
18236,396,466,415
18237,389,472,405
18238,377,472,390
18239,369,472,380
18240,365,473,373
18241,355,472,364
18242,354,472,358
18243,341,469,346
18244,333,469,336
18245,330,469,331
18246,336,467,338
18247,342,467,347
18248,355,467,361
18249,363,468,371
18250,368,465,378
18251,375,467,388
18252,380,467,394
18253,391,469,408
18254,398,470,419
18255,401,472,423
18256,396,470,415
18257,391,469,408
18258,379,472,392
18259,371,473,382
18260,364,472,374
18261,358,472,364
18262,354,473,359
18263,343,472,347
18264,334,469,335
18265,331,469,331
18266,335,468,337
18267,343,465,347
18268,355,465,361
18269,360,465,370
18270,367,466,379
18271,374,465,387
18272,378,465,393
18273,389,466,407
18274,398,470,418
18275,401,469,422
18276,395,468,414
18277,390,470,405
18278,379,471,392
18279,373,471,382
18280,364,472,374
18281,357,471,364
18282,352,471,357
18283,341,470,343
18284,335,470,335
18285,332,465,331
18286,334,467,337
18287,342,466,344
18288,353,465,361
18289,359,464,369
18290,366,466,376
18291,375,465,388
18292,378,467,393
18293,387,466,406
18294,396,466,415
18295,400,468,420
18296,395,469,416
18297,388,469,406
18298,378,472,391
18299,370,471,382
18300,363,472,374
18301,358,472,365
18302,353,472,358
18303,342,467,346
18304,334,470,334
18305,331,469,330
18306,335,468,335
18307,342,467,345
18308,353,466,359
18309,360,468,368
18310,367,466,377
18311,375,466,387
18312,380,468,393
18313,389,467,407
18314,398,467,419
18315,402,468,423
18316,395,470,416
18317,391,471,406
18318,379,471,394
18319,373,472,383
18320,365,474,375
18321,358,473,365
18322,354,473,359
18323,344,471,345
18324,335,470,335
18325,332,469,331
18326,335,468,335
18327,344,467,345
18328,354,468,359
18329,359,466,369
18330,366,466,378
18331,374,466,386
18332,379,465,391
18333,388,467,406
18334,395,468,417
18335,401,470,423
18336,398,470,416
18337,390,472,407
18338,380,471,393
18339,371,472,384
18340,365,471,374
18341,359,472,365
18342,352,472,360
18343,345,468,345
18344,336,470,335
18345,331,469,330
18346,335,466,336
18347,341,467,345
18348,352,465,359
18349,359,462,369
18350,367,464,377
18351,373,466,386
18352,377,465,393
18353,389,468,408
18354,396,466,415
18355,400,468,420
18356,398,469,416
18357,391,471,407
18358,379,471,393
18359,372,472,384
18360,365,472,375
18361,358,471,364
18362,353,469,359
18363,344,469,345
18364,335,467,336
18365,330,466,330
18366,334,467,335
18367,340,464,344
18368,351,464,357
18369,359,464,367
18370,364,465,375
18371,373,464,385
18372,375,464,391
18373,387,466,404
18374,395,465,415
18375,401,466,420
18376,396,468,416
18377,389,471,406
18378,380,468,391
18379,372,470,381
18380,364,471,375
18381,358,469,364
18382,352,470,360
18383,344,469,343
18384,335,468,335
18385,330,467,329
18386,333,464,334
18387,340,466,344
18388,350,462,357
18389,358,466,366
18390,365,464,375
18391,374,464,385
18392,377,463,392
18393,385,465,404
18394,394,465,414
18395,400,467,421
18396,396,467,416
18397,389,466,405
18398,379,469,392
18399,371,470,381
18400,363,471,372
18401,358,470,364
18402,352,469,357
18403,343,468,345
18404,335,467,335
18405,329,466,326
18406,333,465,334
18407,340,463,344
18408,350,463,355
18409,357,464,366
18410,365,462,375
18411,372,463,384
18412,377,464,390
18413,385,466,404
18414,394,463,412
18415,400,467,420
18416,395,468,416
18417,389,468,404
18418,377,468,390
18419,368,469,382
18420,362,469,371
18421,356,468,362
18422,350,468,357
18423,342,467,345
18424,335,466,334
18425,330,462,328
18426,331,462,333
18427,339,460,341
18428,347,458,355
18429,356,459,365
18430,364,462,374
18431,371,462,382
18432,374,462,388
18433,384,459,402
18434,392,464,411
18435,398,463,418
18436,395,466,414
18437,387,465,405
18438,377,466,391
18439,369,466,380
18440,360,467,371
18441,355,468,362
18442,351,466,355
18443,341,463,342
18444,333,467,333
18445,327,463,326
18446,330,463,332
18447,338,462,340
18448,347,460,355
18449,356,459,364
18450,363,460,372
18451,370,459,381
18452,375,459,390
18453,384,460,400
18454,391,460,411
18455,396,462,417
18456,394,463,413
18457,387,464,404
18458,378,465,392
18459,371,467,380
18460,362,466,370
18461,356,466,360
18462,350,466,355
18463,340,465,344
18464,334,464,332
18465,327,462,326
18466,331,459,330
18467,336,460,339
18468,345,457,353
18469,355,460,363
18470,362,459,371
18471,367,459,382
18472,372,460,386
18473,382,460,399
18474,391,462,408
18475,396,462,415
18476,395,463,412
18477,386,464,403
18478,376,467,390
18479,369,465,381
18480,361,465,371
18481,355,464,361
18482,350,463,356
18483,342,465,344
18484,333,463,332
18485,327,461,325
18486,329,461,329
18487,335,458,339
18488,346,460,351
18489,354,459,361
18490,362,459,371
18491,368,460,380
18492,373,456,385
18493,382,459,398
18494,390,461,408
18495,396,460,417
18496,395,464,412
18497,386,463,403
18498,376,463,390
18499,368,465,379
18500,360,464,368
18501,354,465,360
18502,348,466,355
18503,340,463,343
18504,333,462,333
18505,327,462,325
18506,329,460,328
18507,336,460,339
18508,345,457,352
18509,353,460,361
18510,361,457,370
18511,367,458,380
18512,371,457,385
18513,379,460,397
18514,390,458,408
18515,396,462,418
18516,394,463,413
18517,387,465,403
18518,377,465,391
18519,368,465,380
18520,361,462,370
18521,354,464,362
18522,349,464,355
18523,342,464,344
18524,333,462,333
18525,326,462,325
18526,328,460,327
18527,334,460,338
18528,344,459,349
18529,353,458,360
18530,362,458,371
18531,367,456,378
18532,372,457,385
18533,381,460,398
18534,390,462,409
18535,396,462,416
18536,394,463,414
18537,387,462,403
18538,377,463,392
18539,368,465,381
18540,360,465,371
18541,355,466,362
18542,349,466,354
18543,342,463,344
18544,334,464,335
18545,328,461,325
18546,327,460,329
18547,335,458,338
18548,345,460,350
18549,353,459,361
18550,361,458,369
18551,366,459,378
18552,370,459,386
18553,379,460,396
18554,389,459,408
18555,396,460,416
18556,393,459,413
18557,386,464,404
18558,380,462,391
18559,369,463,380
18560,360,463,370
18561,355,464,363
18562,348,463,356
18563,342,459,345
18564,332,463,334
18565,328,461,327
18566,327,459,328
18567,336,460,339
18568,345,459,349
18569,353,457,359
18570,359,458,369
18571,367,458,378
18572,372,458,385
18573,380,458,395
18574,389,460,406
18575,395,461,415
18576,393,461,414
18577,387,464,403
18578,378,461,391
18579,369,464,379
18580,360,464,371
18581,356,465,361
18582,349,463,357
18583,343,461,346
18584,333,463,334
18585,328,463,326
18586,327,457,327
18587,333,462,337
18588,344,460,349
18589,353,458,360
18590,361,462,371
18591,365,456,377
18592,372,456,385
18593,379,459,395
18594,389,459,406
18595,395,460,415
18596,395,460,414
18597,386,461,403
18598,379,463,392
18599,369,464,380
18600,361,460,370
18601,356,462,361
18602,348,464,355
18603,342,457,345
18604,331,460,334
18605,324,460,323
18606,326,459,326
18607,333,459,335
18608,342,455,347
18609,351,457,359
18610,358,456,371
18611,365,455,377
18612,371,456,384
18613,378,455,394
18614,386,457,405
18615,394,460,414
18616,393,460,413
18617,386,462,404
18618,379,463,391
18619,368,461,380
18620,359,462,369
18621,356,461,361
18622,348,463,355
18623,342,461,346
18624,332,461,332
18625,324,458,323
18626,326,458,326
18627,334,457,336
18628,341,458,346
18629,351,457,359
18630,357,455,368
18631,363,455,376
18632,370,457,384
18633,377,456,393
18634,385,456,404
18635,393,460,413
18636,393,459,412
18637,384,460,403
18638,377,460,391
18639,367,462,380
18640,360,462,368
18641,355,461,361
18642,348,461,354
18643,342,462,345
18644,333,459,332
18645,326,458,323
18646,324,454,326
18647,332,457,334
18648,340,455,347
18649,349,455,357
18650,356,456,367
18651,361,456,376
18652,371,456,383
18653,377,456,393
18654,385,455,405
18655,393,457,414
18656,392,456,412
18657,387,462,402
18658,377,462,392
18659,367,462,380
18660,360,460,369
18661,354,459,362
18662,348,461,355
18663,341,462,344
18664,331,460,334
18665,323,457,324
18666,325,457,323
18667,333,455,333
18668,340,456,344
18669,349,454,357
18670,357,454,366
18671,361,455,373
18672,368,456,381
18673,376,456,391
18674,385,453,403
18675,393,457,414
18676,393,459,411
18677,386,459,402
18678,378,461,391
18679,367,459,377
18680,358,461,369
18681,353,460,362
18682,348,459,353
18683,342,460,346
18684,331,458,333
18685,323,457,323
18686,324,456,325
18687,331,455,333
18688,341,454,344
18689,349,453,358
18690,356,455,366
18691,362,454,374
18692,368,454,382
18693,374,452,390
18694,384,457,404
18695,393,456,413
18696,393,457,413
18697,387,457,402
18698,377,460,391
18699,367,461,379
18700,359,461,368
18701,354,462,362
18702,346,461,353
18703,341,457,344
18704,333,460,332
18705,324,458,323
18706,324,455,322
18707,331,453,332
18708,339,458,344
18709,348,454,356
18710,357,454,366
18711,361,453,372
18712,368,453,379
18713,373,454,390
18714,384,455,401
18715,392,456,412
18716,393,459,413
18717,385,460,402
18718,377,459,392
18719,366,460,379
18720,359,460,367
18721,354,459,361
18722,347,459,351
18723,340,460,345
18724,332,459,332
18725,324,458,323
18726,324,457,323
18727,332,456,332
18728,338,454,342
18729,347,453,355
18730,355,454,366
18731,361,453,373
18732,367,451,380
18733,373,457,389
18734,382,455,401
18735,392,455,414
18736,394,456,412
18737,386,459,403
18738,377,460,391
18739,367,460,380
18740,359,458,369
18741,354,459,361
18742,347,458,354
18743,340,460,347
18744,331,458,332
18745,324,458,323
18746,322,455,322
18747,330,455,330
18748,338,454,342
18749,347,453,354
18750,355,451,365
18751,360,453,370
18752,368,453,380
18753,373,452,389
18754,384,455,401
18755,392,456,411
18756,392,456,413
18757,384,459,402
18758,375,458,393
18759,366,457,379
18760,358,460,368
18761,354,461,363
18762,347,459,353
18763,342,459,345
18764,331,457,333
18765,323,455,324
18766,321,455,320
18767,329,453,331
18768,338,454,341
18769,348,452,352
18770,355,454,364
18771,360,453,372
18772,367,453,381
18773,372,455,387
18774,384,455,401
18775,390,455,413
18776,392,456,411
18777,385,457,402
18778,377,458,392
18779,367,460,379
18780,360,460,369
18781,353,460,362
18782,348,458,354
18783,339,458,346
18784,333,456,331
18785,326,458,322
18786,324,454,322
18787,329,453,330
18788,337,452,341
18789,347,453,355
18790,354,453,363
18791,360,454,371
18792,367,453,379
18793,371,455,386
18794,383,454,400
18795,392,453,411
18796,390,456,412
18797,384,458,402
18798,377,459,391
18799,366,459,378
18800,359,457,368
18801,354,460,362
18802,347,459,353
18803,341,459,345
18804,332,456,332
18805,323,456,321
18806,322,454,322
18807,330,456,332
18808,338,453,340
18809,347,449,354
18810,355,454,365
18811,360,455,371
18812,368,455,380
18813,373,454,388
18814,384,455,400
18815,390,456,411
18816,392,456,411
18817,386,458,403
18818,377,459,394
18819,369,460,379
18820,359,461,370
18821,355,461,362
18822,347,459,354
18823,340,460,346
18824,332,458,333
18825,324,454,322
18826,322,455,322
18827,329,456,331
18828,337,454,340
18829,347,454,353
18830,356,454,364
18831,360,453,372
18832,368,454,380
18833,374,455,387
18834,383,455,401
18835,391,458,412
18836,392,458,411
18837,384,458,403
18838,377,458,394
18839,368,460,380
18840,360,459,369
18841,355,460,364
18842,347,461,353
18843,344,459,346
18844,331,457,334
18845,326,459,323
18846,324,457,322
18847,330,457,330
18848,337,455,342
18849,347,455,355
18850,355,454,365
18851,361,453,372
18852,369,453,380
18853,374,455,387
18854,383,458,402
18855,392,457,413
18856,395,458,415
18857,387,461,405
18858,380,462,396
18859,369,462,380
18860,361,462,371
18861,357,463,367
18862,350,463,355
18863,345,462,350
18864,334,460,333
18865,326,461,324
18866,324,460,324
18867,331,456,332
18868,339,457,344
18869,350,456,357
18870,358,456,367
18871,361,457,373
18872,370,458,383
18873,375,455,390
18874,385,460,404
18875,393,462,414
18876,396,461,417
18877,390,461,407
18878,382,464,397
18879,371,463,384
18880,363,464,374
18881,360,464,367
18882,353,465,357
18883,345,463,349
18884,336,463,338
18885,328,461,326
18886,327,460,325
18887,332,462,334
18888,339,458,344
18889,350,459,357
18890,357,456,367
18891,362,459,374
18892,371,459,382
18893,376,459,390
18894,387,461,405
18895,394,462,415
18896,397,462,417
18897,389,462,408
18898,383,465,399
18899,373,464,385
18900,365,465,375
18901,359,466,368
18902,351,466,359
18903,347,465,352
18904,336,464,338
18905,328,462,330
18906,327,462,327
18907,333,460,334
18908,339,461,343
18909,351,458,357
18910,357,456,367
18911,362,460,375
18912,371,460,384
18913,376,459,391
18914,387,461,403
18915,394,462,414
18916,397,464,417
18917,391,464,409
18918,383,464,399
18919,372,465,383
18920,365,465,375
18921,359,463,368
18922,352,465,359
18923,348,465,352
18924,338,464,338
18925,328,462,328
18926,327,461,325
18927,332,460,334
18928,340,460,343
18929,350,458,357
18930,357,460,365
18931,365,458,373
18932,371,458,384
18933,376,459,390
18934,386,459,403
18935,393,459,414
18936,398,462,416
18937,390,464,408
18938,383,464,399
18939,371,462,385
18940,364,465,373
18941,359,467,367
18942,352,464,357
18943,348,462,352
18944,337,462,338
18945,328,462,327
18946,325,460,324
18947,331,461,333
18948,338,457,343
18949,349,459,356
18950,358,458,366
18951,361,457,373
18952,369,458,382
18953,374,458,389
18954,384,459,403
18955,393,460,412
18956,396,461,416
18957,391,463,408
18958,383,463,399
18959,372,464,384
18960,365,463,375
18961,358,464,366
18962,351,464,357
18963,346,462,351
18964,335,463,337
18965,327,462,327
18966,327,460,325
18967,330,459,333
18968,337,457,343
18969,349,458,356
18970,357,457,364
18971,361,455,373
18972,369,456,381
18973,372,458,388
18974,385,456,402
18975,392,459,413
18976,396,461,415
18977,391,461,407
18978,382,463,398
18979,371,462,385
18980,364,462,374
18981,357,463,367
18982,350,462,358
18983,345,463,350
18984,337,460,338
18985,329,462,328
18986,326,458,325
18987,331,459,332
18988,336,458,340
18989,348,456,354
18990,354,457,364
18991,362,457,372
18992,368,450,381
18993,372,456,387
18994,383,459,401
18995,391,460,411
18996,395,461,414
18997,389,460,407
18998,384,462,398
18999,370,462,382
19000,363,462,374
19001,358,463,367
19002,351,464,358
19003,345,462,350
19004,335,461,337
19005,327,461,327
19006,323,459,325
19007,329,457,331
19008,336,456,340
19009,347,456,355
19010,356,454,364
19011,361,456,372
19012,368,455,381
19013,373,455,387
19014,383,457,401
19015,390,455,412
19016,395,459,414
19017,390,462,407
19018,382,459,399
19019,370,462,384
19020,362,462,372
19021,357,462,366
19022,350,462,357
19023,345,459,351
19024,336,459,337
19025,326,459,326
19026,324,459,323
19027,329,459,330
19028,337,453,339
19029,348,455,353
19030,354,454,363
19031,361,457,369
19032,366,456,380
19033,373,455,387
19034,382,457,401
19035,390,458,409
19036,395,459,415
19037,389,459,408
19038,383,463,398
19039,371,460,383
19040,364,462,375
19041,357,462,366
19042,350,462,357
19043,344,461,350
19044,336,460,338
19045,328,456,326
19046,325,459,323
19047,330,456,329
19048,335,457,339
19049,347,455,352
19050,353,455,362
19051,358,452,369
19052,366,452,380
19053,372,456,385
19054,382,456,399
19055,389,457,407
19056,394,460,412
19057,389,460,408
19058,382,462,398
19059,372,462,384
19060,364,461,373
19061,357,461,367
19062,350,462,355
19063,344,460,350
19064,335,461,336
19065,329,456,327
19066,324,459,323
19067,328,457,329
19068,336,456,339
19069,344,452,353
19070,353,456,362
19071,359,449,368
19072,367,455,379
19073,371,453,387
19074,380,456,399
19075,390,458,409
19076,394,459,414
19077,389,459,408
19078,381,461,397
19079,371,463,384
19080,363,461,373
19081,357,462,366
19082,351,461,356
19083,344,461,349
19084,336,459,338
19085,329,459,327
19086,322,457,322
19087,328,457,329
19088,335,456,338
19089,345,455,351
19090,353,455,361
19091,360,455,369
19092,367,456,379
19093,372,454,386
19094,382,454,399
19095,388,456,410
19096,392,459,414
19097,390,459,408
19098,382,463,398
19099,371,461,385
19100,364,460,376
19101,356,462,367
19102,350,460,358
19103,345,462,351
19104,336,460,338
19105,328,459,329
19106,325,457,323
19107,328,458,328
19108,336,454,338
19109,347,456,352
19110,354,455,362
19111,360,456,370
19112,366,451,379
19113,372,455,385
19114,382,456,398
19115,388,456,407
19116,394,457,414
19117,388,458,407
19118,383,459,399
19119,371,457,384
19120,365,462,374
19121,358,459,367
19122,352,462,356
19123,343,460,351
19124,335,461,338
19125,327,457,327
19126,324,457,322
19127,326,455,328
19128,334,454,335
19129,344,454,349
19130,352,455,359
19131,357,453,369
19132,366,454,378
19133,371,456,384
19134,381,456,397
19135,390,456,408
19136,391,459,413
19137,390,458,407
19138,383,459,400
19139,372,458,386
19140,366,461,373
19141,357,462,365
19142,351,461,358
19143,345,458,351
19144,335,460,339
19145,328,459,327
19146,324,459,322
19147,327,454,328
19148,334,455,338
19149,344,456,350
19150,353,455,360
19151,359,455,369
19152,366,453,378
19153,371,455,384
19154,381,456,398
19155,388,457,409
19156,394,458,414
19157,390,458,409
19158,383,461,399
19159,373,461,385
19160,364,462,376
19161,358,460,367
19162,351,462,358
19163,346,460,351
19164,337,460,340
19165,328,460,329
19166,324,458,324
19167,328,457,328
19168,335,455,337
19169,345,455,351
19170,352,455,361
19171,360,456,368
19172,366,454,379
19173,370,457,385
19174,381,456,397
19175,388,459,408
19176,394,461,413
19177,390,460,409
19178,384,462,399
19179,373,464,387
19180,366,462,376
19181,359,462,368
19182,349,461,359
19183,347,460,352
19184,337,461,339
19185,329,462,329
19186,325,460,322
19187,328,455,327
19188,335,457,337
19189,345,457,350
19190,354,457,360
19191,360,457,369
19192,366,456,378
19193,371,457,387
19194,379,458,396
19195,388,460,409
19196,393,460,417
19197,389,461,411
19198,383,462,399
19199,375,461,387
19200,367,463,377
19201,359,463,369
19202,351,463,361
19203,347,462,354
19204,338,462,341
19205,331,458,330
19206,326,461,324
19207,329,460,328
19208,336,456,338
19209,346,458,352
19210,354,457,360
19211,359,458,370
19212,367,457,381
19213,371,459,385
19214,382,458,399
19215,390,457,410
19216,395,460,416
19217,393,461,411
19218,385,463,401
19219,374,463,388
19220,367,464,378
19221,360,464,369
19222,353,464,359
19223,349,462,355
19224,339,462,342
19225,332,461,331
19226,325,461,324
19227,328,459,329
19228,336,458,338
19229,345,458,349
19230,353,457,362
19231,360,457,370
19232,365,457,379
19233,372,458,384
19234,380,458,397
19235,389,460,408
19236,394,461,415
19237,392,461,411
19238,385,463,402
19239,377,464,390
19240,367,462,378
19241,360,464,368
19242,356,461,361
19243,349,463,354
19244,338,463,341
19245,332,463,332
19246,327,460,325
19247,328,460,327
19248,335,458,338
19249,344,457,350
19250,353,456,361
19251,360,454,369
19252,367,457,379
19253,371,458,386
19254,381,459,398
19255,388,458,407
19256,395,461,414
19257,393,462,412
19258,385,460,404
19259,375,463,390
19260,369,463,379
19261,361,463,370
19262,355,463,360
19263,349,462,356
19264,340,463,343
19265,331,460,331
19266,326,460,323
19267,325,458,325
19268,335,456,336
19269,345,456,352
19270,353,458,361
19271,359,457,371
19272,365,458,377
19273,372,459,385
19274,381,455,398
19275,388,460,407
19276,395,461,415
19277,395,459,412
19278,386,462,402
19279,377,464,389
19280,369,463,377
19281,360,464,369
19282,355,465,362
19283,349,463,354
19284,340,462,344
19285,331,462,334
19286,326,461,325
19287,327,460,328
19288,336,458,337
19289,345,458,351
19290,354,457,360
19291,362,456,372
19292,366,455,379
19293,371,458,386
19294,381,456,396
19295,388,461,408
19296,396,463,416
19297,394,459,413
19298,387,463,403
19299,378,464,390
19300,369,464,379
19301,364,462,369
19302,355,464,362
19303,350,463,355
19304,340,462,343
19305,331,461,332
19306,325,460,325
19307,328,461,330
19308,336,459,338
19309,344,458,349
19310,352,458,362
19311,359,457,369
19312,366,458,376
19313,371,459,385
19314,380,457,396
19315,389,460,407
19316,396,459,415
19317,393,462,413
19318,386,461,402
19319,378,463,390
19320,368,463,379
19321,360,465,370
19322,355,462,362
19323,349,463,355
19324,341,462,344
19325,332,462,332
19326,328,458,325
19327,329,459,328
19328,335,457,337
19329,345,458,347
19330,351,455,360
19331,360,457,371
19332,367,455,380
19333,372,458,385
19334,381,461,397
19335,390,460,407
19336,395,462,417
19337,394,462,414
19338,388,462,403
19339,376,463,391
19340,368,465,379
19341,360,463,369
19342,356,466,362
19343,349,462,354
19344,342,462,344
19345,333,462,335
19346,327,460,324
19347,328,461,328
19348,333,460,336
19349,344,453,351
19350,352,458,360
19351,360,457,370
19352,365,458,378
19353,371,457,384
19354,380,457,395
19355,387,459,406
19356,395,459,415
19357,395,462,414
19358,386,463,405
19359,379,463,391
19360,368,463,380
19361,361,464,371
19362,355,463,364
19363,346,463,355
19364,341,463,346
19365,331,462,331
19366,325,460,324
19367,327,459,327
19368,332,459,336
19369,343,457,347
19370,351,456,360
19371,359,457,369
19372,364,457,378
19373,371,458,385
19374,379,459,396
19375,388,459,405
19376,396,457,416
19377,394,463,413
19378,388,463,404
19379,377,465,392
19380,369,463,380
19381,362,464,369
19382,356,461,363
19383,349,464,354
19384,344,463,346
19385,335,463,333
19386,326,461,324
19387,325,458,326
19388,334,458,336
19389,343,455,348
19390,351,460,359
19391,360,456,369
19392,366,458,377
19393,372,458,386
19394,378,458,394
19395,387,455,405
19396,395,462,414
19397,393,462,412
19398,386,461,403
19399,378,464,392
19400,369,464,380
19401,361,465,370
19402,354,465,364
19403,348,465,356
19404,343,462,347
19405,332,464,333
19406,325,460,324
19407,327,460,326
19408,334,458,336
19409,342,459,348
19410,351,459,359
19411,360,456,369
19412,367,457,377
19413,372,457,384
19414,378,459,394
19415,388,456,405
19416,395,460,415
19417,395,462,414
19418,387,463,403
19419,379,463,393
19420,369,464,380
19421,361,464,371
19422,356,461,364
19423,351,463,355
19424,344,464,348
19425,333,462,335
19426,326,460,324
19427,327,460,327
19428,334,457,336
19429,342,459,348
19430,351,457,358
19431,360,458,369
19432,364,458,377
19433,371,457,384
19434,378,458,395
19435,388,460,405
19436,394,460,415
19437,394,462,415
19438,389,462,405
19439,378,463,392
19440,370,464,381
19441,361,463,371
19442,357,463,363
19443,351,465,354
19444,343,463,347
19445,333,461,335
19446,326,459,324
19447,325,459,326
19448,333,459,335
19449,342,457,347
19450,350,457,357
19451,360,456,369
19452,365,457,376
19453,370,458,384
19454,377,459,393
19455,387,459,405
19456,396,460,417
19457,394,461,414
19458,387,463,404
19459,380,463,395
19460,369,463,382
19461,362,462,370
19462,356,466,365
19463,350,462,356
19464,344,464,346
19465,334,462,334
19466,328,462,327
19467,327,460,327
19468,334,456,335
19469,342,457,346
19470,351,457,359
19471,360,457,368
19472,365,456,375
19473,371,458,383
19474,377,455,393
19475,388,460,406
19476,395,460,415
19477,396,461,413
19478,389,464,405
19479,379,464,394
19480,369,463,383
19481,362,464,371
19482,357,462,364
19483,350,464,356
19484,344,462,348
19485,333,462,336
19486,325,460,324
19487,326,460,325
19488,333,458,334
19489,341,455,345
19490,350,458,358
19491,357,457,368
19492,363,457,374
19493,370,459,383
19494,376,459,393
19495,386,459,405
19496,394,461,416
19497,395,461,414
19498,388,461,406
19499,380,464,393
19500,370,463,381
19501,362,463,371
19502,356,464,363
19503,350,464,356
19504,343,463,348
19505,334,463,335
19506,326,461,325
19507,328,460,326
19508,333,459,334
19509,342,456,345
19510,351,458,357
19511,359,456,368
19512,364,457,375
19513,371,457,384
19514,378,458,392
19515,388,455,405
19516,393,461,415
19517,395,462,417
19518,388,462,405
19519,382,462,396
19520,369,463,382
19521,362,466,372
19522,358,465,364
19523,350,463,356
19524,343,464,350
19525,334,462,335
19526,327,460,326
19527,325,460,326
19528,334,459,334
19529,341,460,345
19530,349,459,358
19531,360,458,368
19532,364,458,376
19533,371,457,385
19534,376,456,393
19535,386,460,405
19536,397,458,416
19537,397,462,416
19538,391,463,408
19539,379,466,396
19540,370,464,382
19541,363,465,373
19542,358,464,367
19543,352,463,355
19544,346,465,351
19545,336,461,337
19546,328,462,327
19547,327,461,325
19548,334,459,334
19549,340,457,345
19550,352,459,358
19551,359,458,368
19552,363,458,374
19553,372,459,385
19554,379,459,392
19555,388,461,406
19556,395,459,416
19557,397,459,416
19558,390,463,405
19559,383,464,396
19560,371,464,383
19561,362,464,373
19562,356,465,366
19563,351,465,356
19564,345,465,350
19565,334,463,335
19566,326,462,325
19567,326,459,325
19568,333,459,335
19569,341,460,345
19570,351,458,358
19571,360,458,368
19572,363,458,373
19573,371,457,384
19574,376,461,392
19575,387,459,405
19576,395,462,415
19577,396,463,417
19578,391,464,406
19579,381,463,396
19580,371,465,383
19581,364,463,373
19582,358,465,366
19583,351,464,355
19584,346,465,350
19585,336,463,336
19586,327,463,327
19587,326,462,324
19588,334,461,334
19589,341,457,345
19590,352,460,359
19591,359,459,368
19592,364,459,375
19593,371,460,385
19594,375,460,390
19595,387,459,405
19596,394,460,416
19597,396,462,416
19598,390,463,407
19599,381,465,396
19600,371,466,383
19601,364,465,373
19602,357,465,367
19603,351,465,358
19604,345,462,352
19605,336,464,337
19606,327,462,326
19607,326,461,326
19608,333,459,335
19609,340,459,345
19610,352,458,358
19611,357,459,369
19612,363,456,375
19613,371,457,385
19614,378,460,391
19615,387,459,405
19616,396,463,417
19617,398,462,418
19618,391,464,410
19619,383,464,397
19620,371,466,384
19621,366,464,375
19622,359,465,368
19623,352,464,358
19624,347,465,350
19625,336,463,339
19626,328,464,328
19627,327,462,325
19628,334,461,334
19629,341,460,343
19630,351,459,358
19631,359,459,368
19632,365,460,374
19633,371,460,383
19634,377,459,390
19635,386,459,403
19636,396,462,415
19637,397,464,417
19638,389,465,407
19639,382,466,397
19640,372,466,383
19641,364,463,374
19642,359,465,366
19643,352,465,358
19644,347,465,351
19645,336,463,337
19646,329,462,328
19647,327,462,326
19648,333,459,334
19649,340,460,344
19650,350,458,357
19651,356,458,366
19652,365,459,374
19653,371,458,383
19654,377,460,390
19655,388,459,403
19656,393,462,414
19657,395,461,417
19658,391,463,408
19659,381,465,398
19660,372,465,383
19661,364,466,374
19662,360,465,367
19663,351,466,357
19664,347,464,353
19665,338,463,338
19666,328,461,328
19667,328,461,325
19668,332,460,333
19669,339,459,343
19670,350,459,357
19671,357,458,368
19672,362,459,373
19673,370,458,383
19674,375,460,389
19675,387,460,404
19676,393,459,416
19677,396,462,415
19678,388,463,406
19679,383,462,397
19680,370,465,383
19681,362,464,374
19682,360,461,368
19683,352,464,357
19684,345,464,350
19685,336,462,336
19686,328,462,327
19687,326,460,325
19688,331,459,334
19689,338,457,342
19690,349,457,355
19691,356,455,367
19692,363,458,373
19693,370,459,383
19694,375,457,389
19695,385,458,404
19696,395,460,413
19697,396,460,416
19698,390,463,408
19699,383,459,397
19700,371,463,384
19701,365,464,374
19702,358,464,367
19703,350,463,357
19704,346,462,350
19705,334,464,337
19706,327,460,326
19707,325,458,324
19708,331,458,332
19709,339,458,342
19710,347,458,355
19711,356,458,366
19712,361,457,373
19713,370,456,383
19714,373,457,389
19715,385,458,403
19716,392,459,413
19717,395,461,416
19718,390,462,408
19719,381,461,399
19720,370,462,383
19721,364,465,375
19722,357,462,367
19723,350,461,357
19724,344,463,350
19725,337,459,338
19726,328,457,326
19727,325,460,323
19728,332,458,333
19729,337,458,342
19730,348,457,354
19731,355,456,364
19732,361,456,373
19733,369,458,381
19734,373,457,388
19735,385,459,401
19736,394,460,412
19737,395,461,415
19738,389,462,407
19739,383,462,398
19740,371,464,384
19741,364,464,374
19742,358,464,367
19743,349,463,356
19744,346,461,350
19745,335,461,337
19746,330,460,328
19747,324,459,323
19748,330,459,331
19749,336,457,339
19750,347,454,355
19751,354,458,364
19752,362,457,371
19753,369,457,382
19754,372,457,387
19755,383,459,402
19756,392,460,412
19757,395,458,417
19758,389,461,408
19759,382,462,399
19760,372,463,384
19761,363,459,374
19762,357,463,367
19763,350,462,358
19764,345,462,352
19765,336,460,337
19766,329,459,327
19767,326,460,324
19768,331,457,331
19769,338,458,340
19770,347,457,353
19771,356,457,364
19772,361,456,371
19773,369,456,381
19774,372,457,386
19775,383,456,401
19776,392,458,410
19777,396,460,414
19778,389,457,407
19779,382,463,397
19780,371,462,384
19781,363,463,372
19782,357,463,367
19783,351,462,357
19784,345,461,351
19785,335,461,337
19786,327,460,327
19787,324,459,323
19788,329,458,331
19789,337,457,340
19790,347,457,352
19791,355,458,363
19792,362,457,370
19793,369,457,380
19794,373,458,387
19795,382,456,401
19796,390,460,411
19797,393,459,415
19798,390,460,407
19799,383,462,398
19800,373,462,385
19801,366,464,373
19802,359,462,366
19803,349,463,357
19804,346,461,352
19805,336,461,336
19806,329,458,328
19807,326,460,324
19808,330,459,330
19809,336,457,339
19810,346,456,353
19811,355,455,364
19812,361,452,370
19813,368,456,381
19814,373,457,387
19815,383,458,402
19816,391,460,410
19817,394,460,415
19818,389,461,409
19819,382,463,399
19820,372,463,386
19821,364,464,376
19822,359,462,367
19823,351,463,357
19824,349,463,352
19825,336,461,339
19826,329,460,328
19827,326,460,325
19828,329,460,332
19829,335,459,341
19830,345,458,353
19831,354,456,362
19832,362,456,371
19833,369,457,379
19834,374,456,387
19835,384,457,401
19836,391,458,412
19837,394,459,415
19838,392,461,408
19839,383,463,401
19840,374,462,386
19841,365,462,376
19842,358,464,367
19843,352,462,358
19844,346,462,351
19845,337,461,339
19846,330,461,329
19847,323,461,324
19848,330,459,330
19849,337,456,339
19850,347,458,353
19851,355,456,363
19852,361,455,372
19853,369,456,381
19854,373,457,387
19855,383,459,400
19856,391,460,412
19857,396,462,415
19858,392,462,411
19859,385,463,400
19860,374,462,387
19861,365,461,375
19862,359,463,367
19863,352,463,358
19864,347,464,353
19865,338,462,340
19866,330,462,328
19867,325,459,325
19868,330,459,331
19869,337,458,340
19870,349,458,355
19871,354,458,363
19872,361,458,371
19873,368,458,381
19874,373,458,387
19875,382,459,400
19876,391,461,410
19877,396,460,416
19878,390,462,412
19879,384,463,401
19880,374,465,386
19881,366,464,377
19882,359,464,370
19883,353,462,359
19884,348,463,353
19885,339,464,340
19886,331,462,329
19887,325,460,324
19888,329,458,330
19889,336,459,340
19890,347,457,354
19891,353,458,363
19892,362,454,372
19893,369,453,381
19894,373,458,387
19895,382,460,400
19896,390,460,411
19897,395,459,415
19898,392,463,410
19899,385,461,400
19900,374,464,387
19901,365,466,378
19902,359,463,368
19903,354,464,360
19904,349,460,353
19905,339,462,340
19906,331,461,331
19907,326,461,326
19910,328,457,328
19911,343,457,348
19912,352,458,360
19913,362,455,373
19914,368,459,382
19914,377,458,395
19915,386,459,402
19916,390,458,411
19917,391,461,410
19918,385,463,401
19919,380,465,394
19920,369,462,381
19921,365,464,374
19921,359,464,369
19922,354,464,362
19923,349,463,354
19924,344,465,349
19925,336,461,337
19926,329,461,330
19927,327,461,328
19928,332,460,335
19929,340,460,344
19930,349,457,356
19931,354,456,364
19932,362,458,373
19933,369,458,382
19934,375,456,387
19935,382,459,399
19936,391,462,408
19937,396,461,414
19938,393,462,411
19939,386,463,401
19940,373,463,388
19941,366,464,378
19942,359,462,369
19943,354,464,360
19944,348,463,353
19945,340,462,342
19946,331,462,330
19947,325,463,324
19948,329,460,329
19949,338,457,339
19950,348,459,352
19951,355,458,361
19952,361,458,372
19953,367,458,380
19954,373,458,386
19955,382,458,398
19956,390,459,412
19957,395,461,416
19958,393,460,410
19959,386,463,402
19960,374,464,388
19961,367,466,379
19962,360,465,370
19963,353,465,360
19964,348,463,353
19965,339,462,342
19966,331,463,332
19967,326,462,325
19968,330,460,330
19969,335,459,340
19970,345,459,353
19971,353,458,363
19972,361,460,372
19973,368,459,381
19974,374,458,388
19975,382,461,398
19976,390,461,410
19977,397,460,417
19978,392,463,412
19979,386,463,403
19980,376,463,389
19981,367,465,379
19982,360,463,370
19983,353,460,361
19984,347,464,354
19985,339,463,341
19986,331,461,332
19987,326,461,325
19988,329,457,329
19989,336,460,339
19990,345,459,351
19991,353,458,359
19992,361,457,370
19993,367,458,378
19994,371,459,385
19995,381,456,399
19996,389,460,408
19997,395,461,414
19998,392,463,410
19999,386,463,403
20000,376,464,389
20001,366,463,377
20002,360,464,367
20003,353,464,360
20004,348,464,354
20005,340,463,342
20006,332,461,331
20007,327,459,325
20008,329,459,329
20009,336,458,338
20010,343,457,351
20011,353,456,362
20012,362,455,370
20013,368,458,379
20014,373,459,386
20015,380,457,397
20016,390,460,409
20017,394,461,417
20018,393,461,412
20019,386,460,402
20020,376,463,389
20021,368,465,379
20022,360,464,370
20023,353,463,361
20024,348,463,354
20025,339,464,342
20026,332,462,333
20027,326,461,326
20028,328,458,328
20029,336,460,337
20030,344,458,350
20031,353,459,360
20032,361,458,370
20033,367,457,378
20034,372,457,385
20035,380,457,397
20036,388,459,412
20037,395,461,418
20038,394,462,413
20039,384,461,404
20040,376,463,391
20041,369,463,379
20042,361,463,370
20043,354,461,362
20044,350,464,356
20045,341,463,344
20046,331,462,332
20047,324,459,324
20048,328,460,329
20049,335,457,338
20050,344,458,350
20051,354,458,361
20052,362,457,371
20053,366,457,379
20054,371,457,385
20055,381,460,397
20056,388,461,408
20057,395,461,416
20058,393,461,414
20059,386,464,402
20060,376,463,390
20061,368,465,379
20062,360,463,370
20063,353,464,362
20064,348,463,355
20065,342,462,345
20066,332,461,333
20067,326,460,324
20068,328,459,327
20069,334,459,337
20070,345,458,349
20071,351,457,361
20072,359,458,370
20073,366,458,379
20074,372,458,385
20075,380,460,397
20076,389,460,407
20077,396,461,415
20078,394,461,412
20079,387,462,404
20080,378,463,390
20081,367,465,380
20082,360,464,371
20083,353,463,362
20084,348,463,355
20085,342,463,344
20086,333,462,332
20087,325,461,325
20088,326,460,327
20089,334,460,337
20090,344,458,349
20091,352,456,359
20092,359,458,369
20093,366,457,378
20094,372,457,385
20095,378,459,395
20096,388,458,406
20097,395,460,416
20098,394,462,413
20099,386,462,404
20100,377,464,391
20101,369,463,379
20102,361,466,369
20103,356,463,362
20104,351,463,355
20105,341,463,345
20106,333,461,332
20107,325,460,325
20108,327,461,327
20109,334,456,337
20110,343,457,348
20111,351,457,359
20112,359,458,370
20113,366,457,378
20114,369,458,384
20115,379,458,396
20116,388,457,407
20117,396,458,416
20118,394,462,412
20119,386,462,404
20120,378,464,389
20121,367,464,379
20122,361,463,369
20123,353,463,364
20124,349,462,354
20125,341,463,346
20126,334,462,331
20127,326,459,325
20128,326,460,326
20129,334,457,338
20130,342,457,349
20131,352,458,360
20132,360,457,370
20133,364,457,376
20134,371,457,384
20135,378,458,393
20136,387,457,406
20137,395,460,414
20138,394,462,412
20139,387,459,404
20140,377,463,391
20141,368,463,380
20142,360,463,370
20143,355,464,364
20144,350,464,354
20145,341,462,344
20146,332,458,333
20147,326,459,324
20148,327,460,326
20149,333,458,335
20150,342,457,348
20151,350,457,359
20152,357,455,369
20153,364,456,377
20154,368,457,384
20155,378,458,394
20156,386,458,404
20157,393,460,414
20158,393,461,413
20159,385,463,404
20160,378,462,392
20161,368,462,381
20162,360,462,371
20163,354,462,362
20164,348,462,355
20165,342,462,345
20166,334,457,333
20167,325,462,324
20168,325,457,326
20169,334,455,337
20170,341,456,345
20171,351,457,359
20172,358,455,368
20173,363,456,375
20174,369,452,383
20175,377,457,393
20176,386,456,405
20177,392,459,414
20178,393,460,412
20179,385,461,403
20180,377,463,390
20181,367,462,380
20182,360,462,369
20183,354,464,362
20184,349,463,355
20185,342,462,345
20186,333,461,333
20187,325,458,324
20188,326,458,323
20189,332,454,334
20190,340,458,346
20191,350,456,357
20192,357,456,367
20193,363,456,375
20194,368,456,382
20195,376,455,391
20196,386,457,405
20197,393,460,415
20198,392,460,412
20199,385,461,403
20200,377,461,391
20201,367,462,379
20202,359,461,368
20203,354,463,361
20204,348,461,353
20205,341,458,346
20206,330,460,331
20207,324,460,322
20208,325,455,325
20209,332,457,334
20210,339,456,343
20211,350,456,359
20212,357,454,367
20213,363,452,373
20214,368,455,383
20215,375,457,391
20216,385,457,403
20217,394,458,413
20218,393,459,412
20219,386,460,403
20220,378,463,393
20221,367,459,380
20222,361,464,370
20223,353,461,361
20224,348,461,353
20225,343,461,345
20226,332,460,332
20227,323,458,322
20228,324,458,325
20229,332,455,334
20230,340,456,343
20231,349,455,356
20232,357,453,368
20233,363,455,374
20234,368,456,382
20235,375,456,390
20236,386,458,401
20237,391,458,413
20238,393,459,413
20239,385,460,404
20240,378,459,392
20241,368,461,379
20242,359,461,370
20243,354,461,361
20244,347,461,352
20245,341,457,346
20246,331,460,331
20247,324,457,324
20248,325,457,323
20249,331,456,334
20250,340,459,345
20251,349,454,356
20252,358,455,366
20253,363,454,374
20254,370,450,382
20255,374,455,391
20256,386,458,403
20257,394,458,413
20258,393,457,413
20259,386,461,403
20260,378,461,395
20261,367,461,379
20262,360,463,370
20263,356,462,363
20264,349,462,353
20265,343,460,348
20266,332,460,333
20267,324,460,324
20268,323,458,325
20269,332,455,334
20270,339,455,343
20271,349,454,357
20272,357,454,366
20273,361,455,374
20274,366,457,382
20275,374,454,389
20276,385,458,403
20277,393,458,412
20278,393,459,414
20279,387,459,403
20280,379,461,395
20281,368,462,381
20282,360,465,371
20283,354,462,362
20284,348,462,353
20285,342,463,348
20286,332,460,334
20287,324,457,323
20288,325,457,323
20289,332,458,333
20290,338,456,343
20291,351,456,356
20292,356,455,366
20293,362,456,373
20294,371,455,382
20295,374,457,389
20296,385,457,405
20297,393,458,414
20298,394,459,414
20299,385,459,404
20300,380,462,394
20301,369,462,382
20302,362,462,371
20303,356,463,364
20304,350,462,355
20305,343,458,348
20306,333,461,335
20307,325,460,325
20308,326,458,325
20309,333,456,333
20310,339,458,343
20311,352,456,357
20312,358,456,366
20313,363,453,374
20314,370,454,381
20315,376,456,390
20316,384,458,403
20317,393,459,413
20318,393,462,414
20319,389,462,405
20320,382,463,395
20321,370,460,381
20322,361,463,371
20323,357,463,365
20324,349,463,356
20325,344,464,347
20326,334,459,335
20327,327,459,325
20328,326,460,323
20329,333,457,334
20330,341,457,344
20331,351,457,357
20332,357,458,367
20333,363,455,375
20334,371,457,383
20335,375,458,389
20336,385,459,405
20337,393,459,415
20338,395,461,415
20339,387,461,407
20340,381,462,395
20341,369,462,383
20342,363,464,372
20343,356,464,366
20344,350,461,357
20345,343,463,350
20346,336,462,335
20347,328,462,326
20348,326,461,326
20349,333,458,334
20350,340,460,343
20351,351,459,359
20352,358,457,368
20353,363,458,373
20354,371,457,382
20355,375,457,391
20356,386,460,405
20357,394,460,415
20358,396,461,415
20359,389,462,408
20360,382,466,398
20361,372,466,384
20362,364,465,374
20363,360,466,368
20364,351,466,358
20365,345,465,350
20366,335,464,337
20367,327,463,328
20368,325,462,325
20369,334,461,335
20370,340,460,344
20371,352,458,358
20372,357,460,368
20373,364,459,376
20374,371,460,385
20375,376,459,390
20376,386,460,404
20377,394,462,415
20378,396,461,415
20379,391,464,407
20380,383,465,397
20381,372,465,384
20382,366,464,376
20383,359,465,367
20384,351,465,358
20385,347,465,351
20386,336,465,337
20387,330,462,328
20388,326,463,327
20389,334,461,333
20390,341,460,344
20391,351,459,358
20392,358,459,367
20393,364,461,374
20394,372,459,385
20395,376,461,391
20396,387,461,406
20397,395,461,416
20398,396,462,417
20399,391,465,407
20400,383,465,399
20401,372,462,383
20402,365,464,375
20403,359,466,368
20404,351,466,355
20405,347,466,351
20406,337,464,338
20407,329,464,328
20408,327,460,326
20409,333,461,335
20410,342,462,343
20411,351,459,358
20412,359,459,368
20413,364,461,375
20414,372,459,384
20415,377,457,392
20416,386,463,403
20417,396,461,415
20418,398,465,417
20419,392,466,410
20420,384,463,399
20421,373,465,385
20422,366,466,375
20423,361,467,368
20424,352,467,357
20425,347,466,351
20426,335,464,339
20427,330,465,329
20428,325,463,325
20429,333,459,334
20430,340,459,345
20431,350,459,357
20432,358,459,367
20433,365,459,375
20434,372,460,384
20435,375,460,390
20436,387,461,405
20437,394,459,416
20438,396,460,417
20439,391,465,409
20440,385,462,400
20441,374,465,386
20442,365,465,376
20443,359,468,368
20444,352,466,359
20445,348,465,352
20446,337,464,337
20447,329,463,329
20448,327,463,326
20449,334,462,334
20450,340,462,342
20451,351,459,357
20452,360,459,367
20453,361,459,374
20454,371,460,384
20455,376,460,392
20456,385,461,403
20457,394,460,413
20458,398,460,417
20459,390,463,408
20460,385,466,399
20461,373,466,385
20462,366,468,377
20463,361,467,369
20464,352,466,359
20465,347,464,353
20466,338,465,340
20467,330,463,328
20468,326,462,326
20469,333,460,334
20470,340,460,344
20471,350,460,355
20472,357,460,366
20473,362,460,372
20474,371,459,383
20475,376,461,391
20476,387,462,404
20477,395,460,416
20478,397,463,417
20479,392,463,410
20480,386,466,400
20481,372,466,385
20482,364,466,375
20483,360,464,368
20484,352,466,358
20485,349,466,352
20486,338,462,340
20487,329,463,329
20488,326,463,326
20489,332,463,333
20490,339,459,341
20491,352,460,356
20492,357,456,367
20493,363,457,373
20494,372,459,384
20495,375,460,391
20496,387,461,403
20497,395,461,414
20498,398,463,417
20499,392,464,410
20500,384,465,401
20501,374,466,385
20502,366,466,378
20503,360,463,370
20504,353,466,359
20505,348,463,353
20506,337,464,339
20507,329,464,330
20508,326,464,326
20509,331,460,333
20510,340,460,342
20511,349,461,358
20512,358,457,366
20513,364,458,374
20514,369,460,381
20515,376,460,389
20516,387,460,403
20517,394,463,414
20518,397,463,417
20519,390,463,409
20520,385,463,399
20521,372,465,385
20522,366,467,375
20523,360,466,369
20524,353,461,360
20525,347,466,352
20526,339,463,341
20527,329,462,330
20528,327,464,326
20529,332,459,333
20530,339,458,341
20531,349,458,358
20532,358,458,367
20533,363,458,374
20534,371,459,383
20535,377,458,390
20536,385,460,403
20537,395,461,414
20538,396,463,418
20539,392,464,409
20540,383,465,400
20541,374,465,387
20542,364,466,376
20543,359,466,368
20544,353,462,359
20545,347,463,352
20546,338,463,341
20547,330,461,329
20548,327,461,327
20549,332,462,333
20550,339,461,342
20551,349,459,356
20552,356,459,364
20553,364,458,374
20554,371,460,381
20555,375,460,388
20556,385,459,403
20557,394,462,412
20558,399,461,417
20559,394,462,410
20560,385,463,401
20561,374,462,386
20562,366,466,376
20563,361,464,369
20564,353,465,359
20565,347,463,353
20566,337,464,340
20567,330,461,329
20568,328,462,326
20569,331,461,332
20570,339,462,340
20571,349,460,357
20572,357,459,366
20573,362,458,373
20574,369,455,383
20575,375,458,389
20576,384,461,403
20577,393,457,411
20578,396,464,415
20579,394,463,410
20580,384,465,401
20581,374,464,386
20582,366,465,378
20583,359,465,368
20584,353,466,359
20585,347,465,353
20586,338,465,340
20587,329,461,331
20588,325,462,324
20589,330,460,332
20590,338,458,342
20591,348,459,355
20592,355,460,363
20593,362,460,371
20594,368,458,383
20595,374,459,388
20596,384,460,402
20597,391,460,412
20598,395,462,415
20599,391,463,410
20600,384,463,402
20601,374,463,386
20602,365,462,377
20603,360,465,368
20604,353,465,360
20605,348,465,352
20606,338,463,340
20607,330,463,330
20608,326,462,325
20609,330,461,332
20610,337,461,342
20611,349,458,355
20612,354,457,364
20613,363,457,371
20614,370,459,382
20615,372,457,388
20616,383,460,400
20617,391,460,410
20618,395,462,416
20619,392,462,410
20620,384,463,401
20621,374,463,387
20622,366,464,377
20623,359,464,369
20624,353,465,358
20625,347,463,354
20626,339,462,341
20627,332,462,329
20628,326,461,325
20629,329,459,332
20630,336,459,342
20631,347,456,354
20632,355,456,365
20633,362,457,371
20634,368,456,380
20635,374,458,387
20636,383,459,399
20637,391,458,411
20638,395,462,415
20639,392,463,410
20640,383,463,401
20641,373,462,387
20642,365,464,377
20643,360,465,369
20644,352,463,358
20645,346,463,355
20646,338,464,341
20647,330,463,329
20648,324,461,325
20649,329,459,330
20650,337,457,339
20651,344,458,352
20652,354,458,361
20653,360,458,370
20654,367,458,380
20655,372,458,388
20656,381,459,399
20657,392,460,410
20658,397,459,416
20659,393,460,411
20660,384,464,398
20661,373,464,387
20662,365,465,378
20663,360,462,369
20664,353,466,360
20665,348,461,354
20666,338,464,339
20667,331,462,329
20668,325,460,324
20669,329,459,329
20670,336,458,340
20671,345,458,352
20672,354,457,362
20673,360,456,371
20674,367,457,380
20675,371,456,386
20676,382,459,398
20677,389,459,408
20678,394,460,415
20679,392,463,411
20680,385,464,403
20681,374,462,388
20682,366,465,377
20683,359,464,367
20684,352,463,360
20685,347,461,353
20686,339,463,341
20687,330,460,330
20688,326,460,325
20689,329,460,328
20690,336,457,340
20691,345,454,353
20692,354,459,361
20693,360,457,370
20694,368,458,378
20695,370,458,385
20696,381,458,397
20697,389,459,408
20698,395,461,415
20699,392,459,410
20700,384,462,402
20701,374,461,388
20702,367,462,379
20703,359,464,368
20704,352,463,359
20705,348,461,353
20706,337,460,340
20707,331,460,329
20708,325,460,323
20709,329,457,329
20710,335,454,338
20711,346,455,351
20712,354,456,362
20713,361,457,370
20714,365,457,377
20715,372,458,384
20716,380,457,396
20717,388,457,408
20718,395,460,413
20719,391,459,411
20720,384,458,401
20721,373,462,388
20722,366,463,377
20723,358,462,367
20724,353,462,360
20725,348,461,353
20726,338,461,340
20727,329,459,331
20728,325,459,324
20729,330,459,328
20730,335,458,338
20731,344,457,351
20732,352,455,361
20733,360,455,369
20734,366,458,378
20735,371,456,386
20736,379,459,399
20737,388,459,408
20738,394,459,413
20739,392,461,409
20740,384,461,401
20741,375,463,389
20742,366,460,378
20743,359,460,367
20744,352,463,360
20745,348,461,354
20746,339,462,342
20747,330,460,330
20748,324,460,323
20749,328,457,328
20750,334,456,337
20751,344,456,348
20752,351,456,361
20753,360,456,369
20754,365,455,377
20755,371,456,383
20756,379,457,396
20757,387,456,406
20758,394,460,414
20759,392,461,411
20760,384,460,401
20761,375,462,388
20762,367,464,379
20763,359,462,368
20764,352,462,360
20765,348,462,354
20766,339,462,341
20767,331,460,331
20768,325,459,322
20769,328,459,327
20770,336,456,336
20771,344,455,350
20772,353,453,358
20773,359,453,369
20774,366,456,377
20775,372,455,384
20776,379,458,396
20777,388,459,405
20778,395,460,413
20779,392,460,410
20780,385,461,401
20781,375,461,388
20782,366,462,377
20783,359,464,366
20784,351,463,361
20785,348,460,354
20786,338,461,342
20787,330,461,329
20788,324,460,322
20789,327,458,327
20790,335,457,337
20791,344,459,349
20792,351,456,359
20793,359,456,368
20794,365,455,377
20795,372,456,384
20796,380,457,397
20797,388,459,406
20798,395,459,414
20799,392,458,412
20800,385,458,401
20801,376,461,389
20802,369,459,379
20803,361,463,369
20804,353,463,361
20805,347,463,355
20806,341,461,343
20807,331,462,331
20808,324,459,325
20809,327,457,328
20810,334,459,336
20811,344,456,350
20812,351,456,361
20813,359,459,368
20814,365,458,377
20815,371,455,383
20816,379,459,396
20817,387,458,407
20818,395,459,415
20819,394,461,414
20820,386,461,403
20821,378,464,391
20822,368,464,380
20823,361,462,370
20824,354,464,363
20825,349,461,355
20826,340,463,343
20827,332,461,333
20828,326,459,325
20829,327,460,329
20830,335,457,338
20831,344,459,349
20832,353,458,362
20833,360,457,370
20834,365,458,378
20835,372,457,385
20836,380,459,396
20837,388,459,407
20838,396,459,415
20839,393,462,412
20840,385,463,404
20841,378,463,390
20842,369,462,379
20843,361,465,370
20844,354,464,362
20845,350,464,354
20846,342,464,345
20847,330,462,334
20848,325,461,325
20849,327,459,327
20850,334,455,335
20851,343,454,349
20852,351,457,358
20853,361,455,369
20854,364,456,376
20855,368,457,383
20856,378,458,394
20857,385,457,405
20858,395,460,414
20859,393,462,413
20860,386,460,405
20861,377,461,389
20862,367,464,379
20863,360,463,369
20864,356,464,362
20865,350,464,354
20866,342,463,346
20867,335,463,335
20868,327,461,326
20869,328,459,329
20870,334,459,338
20871,346,459,351
20872,355,458,363
20873,361,459,371
20874,366,456,379
20875,374,455,385
20876,378,457,393
20877,387,459,404
20878,393,461,414
20879,393,461,413
20880,388,462,404
20881,378,462,392
20882,368,463,379
20883,359,463,369
20884,355,465,363
20885,351,464,357
20886,342,464,345
20887,333,462,334
20888,326,461,326
20889,327,460,327
20890,334,459,335
20891,342,458,348
20892,353,457,359
20893,359,458,369
20894,365,457,376
20895,370,457,386
20896,378,456,395
20897,388,460,403
20898,395,461,415
20899,392,463,414
20900,387,464,404
20901,378,464,391
20902,368,465,380
20903,361,464,370
20904,355,465,363
20905,350,463,356
20906,342,464,347
20907,334,463,336
20908,327,461,327
20909,329,462,329
20910,337,460,337
20911,344,459,349
20912,355,460,361
20913,361,458,371
20914,366,457,377
20915,374,456,387
20916,380,461,397
20917,389,461,408
20918,396,464,417
20919,396,462,416
20920,388,461,405
20921,381,465,394
20922,372,465,383
20923,361,467,373
20924,358,466,366
20925,351,466,358
20926,344,464,347
20927,334,465,335
20928,326,463,325
20929,328,460,326
20930,335,460,336
20931,343,457,347
20932,353,459,359
20933,359,457,367
20934,365,461,373
20935,368,460,379
20936,378,460,397
20937,389,460,407
20938,397,462,417
20939,398,464,415
20940,390,467,407
20941,381,468,396
20942,370,468,384
20943,365,469,374
20944,360,468,369
20945,358,470,366
20946,346,465,349
20947,337,465,337
20948,328,466,328
20949,329,462,329
20950,337,462,338
20951,344,462,348
20952,354,462,360
20953,359,461,368
20954,363,460,374
20955,367,462,379
20956,383,462,399
20957,392,463,412
20958,399,465,419
20959,401,467,419
20960,391,469,410
20961,384,468,399
20962,377,469,389
20963,371,470,381
20964,367,471,376
20965,363,470,371
20966,344,469,345
20967,332,468,333
20968,327,466,324
20969,327,466,325
20970,335,462,335
20971,344,466,345
20972,353,462,355
20973,358,462,362
20974,363,461,368
20975,366,462,374
20976,384,462,397
20977,394,462,410
20978,400,466,419
20979,400,463,418
20980,392,468,411
20981,385,469,401
20982,377,468,391
20983,371,470,384
20984,367,471,381
20985,362,470,374
20986,344,469,348
20987,333,468,338
20988,327,467,326
20989,328,465,329
20990,335,461,337
20991,343,462,349
20992,352,459,358
20993,357,460,364
20994,362,460,371
20995,367,462,377
20996,382,463,397
20997,391,462,410
20998,398,462,419
20999,399,466,419
21000,393,466,410
21001,385,470,400
21002,377,469,388
21003,370,469,381
21004,367,468,377
21005,363,468,370
21006,342,468,344
21007,335,464,332
21008,325,464,324
21009,327,463,325
21010,334,461,334
21011,339,460,344
21012,349,459,354
21013,354,460,362
21014,359,460,369
21015,364,459,373
21016,381,460,399
21017,392,462,409
21018,399,461,420
21019,398,462,420
21020,391,464,410
21021,383,464,399
21022,376,464,389
21023,370,466,383
21024,366,466,377
21025,362,464,370
21026,343,466,347
21027,333,466,334
21028,326,463,325
21029,325,462,324
21030,332,461,335
21031,339,458,343
21032,349,459,355
21033,355,457,363
21034,358,458,367
21035,363,458,373
21036,378,458,395
21037,389,460,408
21038,397,459,417
21039,396,460,416
21040,389,463,408
21041,382,464,398
21042,372,467,386
21043,366,465,377
21044,364,465,373
21045,358,463,366
21046,344,462,346
21047,333,464,333
21048,325,462,324
21049,324,462,324
21050,332,457,333
21051,341,458,344
21052,348,457,354
21053,354,456,362
21054,357,455,367
21055,363,457,372
21056,378,457,395
21057,389,458,408
21058,398,462,419
