Time (ms),Bicep,Shoulder,Tricep
853423,363,461,370
853424,360,461,370
853425,361,457,371
853426,362,460,370
853427,361,462,370
853428,361,461,370
853429,361,459,369
853430,361,461,370
853431,360,461,369
853432,358,459,368
853433,359,455,368
853434,359,456,368
853435,360,458,368
853436,358,457,369
853437,359,457,368
853438,359,457,367
853439,360,458,370
853440,359,459,369
853441,361,455,370
853442,361,460,370
853443,360,459,369
853444,360,460,370
853445,361,462,371
853446,361,462,370
853447,361,459,369
853448,361,463,370
853449,361,462,370
853450,361,461,370
853451,361,461,370
853452,360,459,369
853453,359,457,369
853454,359,460,367
853455,358,458,370
853456,360,459,369
853457,360,457,368
853458,360,458,369
853459,359,458,370
853460,358,459,369
853461,359,458,370
853462,361,460,371
853463,360,461,371
853464,362,462,371
853465,361,463,371
853466,361,461,372
853467,362,460,371
853468,362,463,371
853469,360,461,370
853470,361,460,370
853471,360,458,370
853472,359,460,369
853473,360,459,369
853474,359,457,367
853475,360,460,369
853476,359,455,368
853477,358,458,368
853478,360,457,370
853479,359,459,369
853480,360,459,370
853481,359,460,369
853482,360,460,369
853483,360,460,371
853484,362,462,371
853485,361,461,371
853486,361,462,371
853487,361,462,371
853488,359,462,370
853489,359,460,370
853490,360,459,369
853491,360,458,370
853492,359,460,368
853493,359,460,367
853494,358,460,368
853495,359,458,369
853496,359,456,368
853497,358,453,368
853498,360,459,367
853499,359,457,368
853500,359,460,370
853501,359,459,370
853502,360,460,369
853503,361,459,370
853504,359,462,370
853505,361,462,369
853506,362,460,370
853507,360,462,369
853508,361,461,370
853509,360,457,369
853510,361,459,370
853511,361,460,368
853512,358,459,367
853513,358,458,368
853514,359,457,370
853515,358,458,369
853516,359,457,368
853517,358,459,367
853518,359,459,369
853519,359,457,369
853520,360,455,368
853521,360,458,369
853522,359,458,369
853523,360,457,370
853524,361,460,370
853525,360,460,369
853526,360,461,369
853527,360,462,370
853528,361,462,370
853529,360,461,368
853530,360,457,369
853531,358,459,367
853532,359,459,368
853533,357,458,369
853534,358,459,367
853535,358,456,368
853536,358,458,368
853537,358,455,368
853538,358,459,368
853539,359,455,368
853540,359,457,368
853541,358,459,367
853542,359,459,370
853543,360,459,369
853544,360,459,370
853545,361,460,370
853546,360,461,370
853547,361,461,369
853548,361,457,369
853549,360,460,369
853550,360,459,370
853551,360,459,368
853552,358,460,368
853553,359,459,368
853554,358,455,368
853555,359,457,367
853556,359,454,367
853557,359,457,367
853558,358,457,369
853559,359,458,369
853560,360,459,370
853561,362,459,370
853562,360,457,369
853563,361,460,369
853564,360,459,369
853565,361,460,369
853566,361,462,370
853567,360,461,371
853568,362,461,370
853569,362,461,370
853570,360,462,370
853571,360,460,370
853572,362,459,367
853573,359,459,369
853574,359,457,368
853575,359,457,368
853576,359,457,369
853577,358,456,370
853578,360,456,369
853579,359,456,369
853580,359,457,369
853581,359,459,369
853582,360,457,370
853583,362,461,369
853584,359,461,370
853585,361,461,371
853586,361,462,369
853587,361,461,370
853588,360,460,371
853589,360,459,369
853590,361,461,368
853591,360,459,370
853592,361,458,369
853593,360,459,369
853594,358,454,368
853595,358,457,368
853596,359,456,368
853597,359,458,369
853598,359,458,368
853599,357,459,368
853600,360,459,371
853601,360,458,370
853602,360,460,370
853603,359,460,371
853604,361,458,370
853605,362,460,370
853606,361,460,371
853607,360,461,371
853608,361,460,370
853609,359,460,369
853610,359,459,367
853611,359,455,368
853612,358,457,365
853613,359,455,368
853614,357,456,367
853615,358,457,367
853616,358,456,367
853617,358,456,367
853618,358,456,367
853619,357,455,367
853620,358,456,366
853621,358,455,368
853622,358,457,366
853623,358,457,366
853624,358,456,368
853625,357,457,367
853626,356,455,367
853627,358,457,368
853628,356,457,365
853629,356,454,366
853630,356,454,365
853631,356,452,365
853632,355,454,365
853633,355,452,364
853634,354,452,364
853635,355,451,366
853636,355,450,366
853637,354,449,364
853638,354,449,364
853639,353,450,363
853640,354,451,363
853641,355,451,365
853642,356,454,364
853643,355,452,364
853644,356,452,363
853645,355,453,364
853646,356,453,365
853647,355,451,364
853648,355,451,364
853649,355,451,364
853650,355,449,362
853651,354,456,364
853652,352,449,361
853653,353,450,361
853654,353,449,362
853655,352,445,360
853656,352,450,361
853657,353,448,361
853658,353,449,362
853659,353,449,362
853660,353,450,364
853661,354,448,362
853662,353,451,363
853663,354,447,363
853664,355,451,364
853665,353,449,362
853666,354,453,363
853667,354,455,363
853668,355,452,364
853669,355,451,363
853670,353,451,363
853671,353,452,362
853672,353,452,364
853673,353,451,362
853674,352,452,362
853675,353,447,361
853676,351,450,362
853677,352,449,363
853678,353,450,363
853679,352,448,362
853680,354,451,364
853681,355,450,363
853682,356,452,364
853683,354,452,363
853684,354,451,365
853685,356,454,364
853686,355,451,364
853687,356,453,364
853688,355,453,363
853689,355,454,362
853690,356,453,364
853691,354,453,363
853692,355,451,364
853693,354,449,364
853694,355,451,364
853695,354,453,364
853696,354,452,363
853697,355,450,364
853698,355,452,364
853699,354,451,364
853700,355,450,365
853701,356,453,364
853702,357,454,366
853703,356,452,366
853704,357,453,366
853705,358,454,365
853706,357,455,366
853707,359,453,366
853708,356,455,366
853709,356,456,366
853710,358,456,365
853711,356,451,365
853712,355,455,365
853713,355,449,365
853714,356,453,364
853715,357,454,363
853716,357,451,365
853717,355,453,366
853718,355,455,365
853719,357,454,366
853720,357,455,365
853721,355,455,365
853722,357,455,366
853723,356,457,365
853724,357,458,366
853725,357,458,367
853726,358,456,367
853727,357,458,365
853728,359,458,368
853729,359,457,368
853730,358,457,367
853731,358,457,365
853732,356,456,366
853733,357,455,366
853734,358,458,365
853735,357,453,365
853736,357,453,369
853737,356,456,366
853738,357,456,367
853739,358,456,367
853740,357,455,367
853741,357,455,367
853742,357,458,367
853743,358,459,368
853744,358,458,368
853745,359,457,369
853746,360,459,368
853747,360,460,370
853748,360,460,369
853749,360,459,369
853750,360,460,368
853751,359,458,369
853752,358,458,368
853753,359,458,369
853754,359,455,368
853755,359,457,368
853756,357,454,367
853757,357,457,367
853758,358,458,368
853759,358,456,368
853760,359,459,368
853761,360,460,369
853762,358,460,369
853763,360,460,371
853764,360,460,369
853765,361,460,371
853766,361,458,370
853767,361,462,370
853768,360,457,371
853769,362,460,369
853770,360,460,370
853771,360,459,369
853772,360,459,370
853773,360,460,368
853774,359,459,368
853775,360,457,368
853776,359,457,368
853777,360,459,368
853778,358,459,370
853779,359,459,368
853780,359,455,369
853781,360,458,371
853782,360,462,371
853783,360,461,371
853784,361,460,369
853785,360,461,370
853786,362,463,369
853787,362,463,371
853788,360,463,371
853789,360,462,371
853790,362,461,370
853791,361,460,370
853792,360,461,370
853793,360,461,371
853794,360,459,369
853795,361,459,369
853796,361,459,369
853797,359,461,370
853798,361,460,370
853799,358,461,369
853800,361,460,370
853801,361,462,369
853802,361,461,372
853803,360,462,371
853804,363,461,372
853805,362,464,371
853806,362,462,372
853807,361,464,371
853808,362,464,371
853809,359,463,371
853810,361,462,371
853811,362,460,370
853812,361,461,370
853813,361,460,371
853814,360,458,369
853815,360,461,369
853816,361,462,370
853817,361,457,369
853818,360,460,370
853819,361,462,370
853820,361,460,370
853821,360,460,371
853822,362,460,371
853823,360,462,371
853824,361,462,374
853825,363,462,371
853826,363,463,371
853827,362,464,371
853828,362,463,372
853829,362,463,370
853830,362,463,371
853831,362,462,371
853832,363,463,371
853833,361,462,371
853834,361,460,368
853835,360,460,369
853836,360,458,370
853837,361,459,369
853838,361,461,370
853839,362,459,370
853840,360,461,369
853841,362,461,371
853842,362,463,371
853843,361,462,372
853844,364,462,373
853845,363,465,372
853846,364,464,372
853847,361,464,372
853848,362,463,371
853849,363,463,372
853850,362,463,372
853851,362,462,373
853852,362,460,371
853853,361,462,370
853854,360,462,370
853855,360,461,370
853856,361,460,370
853857,361,461,371
853858,360,459,371
853859,361,459,371
853860,360,462,371
853861,362,459,372
853862,363,462,372
853863,362,463,371
853864,362,463,372
853865,362,463,372
853866,362,464,374
853867,362,464,372
853868,362,463,371
853869,362,464,371
853870,364,463,371
853871,363,462,372
853872,362,458,371
853873,359,462,370
853874,361,462,370
853875,361,461,370
853876,362,462,370
853877,360,458,370
853878,361,458,371
853879,362,458,370
853880,362,461,372
853881,360,460,370
853882,362,462,372
853883,363,462,372
853884,363,463,372
853885,363,464,373
853886,364,465,373
853887,362,465,372
853888,363,464,373
853889,361,461,372
853890,361,465,372
853891,361,462,371
853892,361,463,372
853893,361,464,370
853894,359,460,371
853895,361,461,370
853896,359,460,370
853897,360,460,371
853898,361,459,370
853899,360,463,370
853900,361,462,371
853901,361,462,372
853902,361,464,372
853903,362,464,373
853904,364,461,372
853905,362,462,371
853906,364,464,372
853907,363,463,372
853908,364,462,373
853909,364,464,372
853910,362,459,371
853911,361,463,370
853912,359,462,369
853913,361,460,371
853914,362,462,369
853915,360,461,370
853916,360,462,371
853917,360,459,369
853918,361,460,368
853919,361,459,371
853920,359,460,370
853921,361,461,371
853922,362,462,371
853923,363,463,372
853924,363,463,371
853925,361,463,372
853926,362,463,372
853927,361,463,372
853928,363,464,371
853929,362,462,371
853930,361,463,371
853931,364,464,370
853932,362,462,371
853933,361,460,370
853934,360,460,370
853935,361,458,369
853936,360,460,369
853937,360,459,372
853938,361,461,370
853939,362,459,370
853940,361,462,371
853941,362,461,371
853942,362,461,372
853943,362,462,372
853944,363,463,372
853945,361,464,371
853946,363,463,372
853947,363,463,373
853948,363,464,371
853949,364,462,372
853950,362,462,371
853951,362,462,370
853952,362,458,372
853953,360,459,370
853954,360,463,369
853955,362,460,370
853956,361,461,369
853957,361,460,369
853958,360,457,368
853959,361,460,371
853960,360,460,371
853961,361,462,371
853962,359,462,370
853963,361,461,371
853964,361,462,371
853965,361,461,372
853966,362,463,371
853967,362,463,372
853968,363,463,371
853969,361,461,371
853970,361,462,369
853971,362,461,370
853972,361,457,369
853973,361,459,369
853974,360,458,369
853975,361,459,370
853976,359,458,370
853977,360,459,369
853978,360,460,369
853979,360,459,371
853980,360,460,372
853981,360,460,371
853982,361,461,370
853983,362,465,370
853984,362,462,371
853985,361,464,371
853986,361,463,371
853987,362,463,371
853988,362,460,370
853989,361,461,371
853990,362,462,369
853991,360,462,370
853992,361,460,369
853993,361,459,369
853994,358,460,368
853995,360,459,369
853996,359,459,369
853997,358,459,369
853998,359,460,370
853999,360,460,370
854000,360,459,370
854001,360,459,369
854002,360,460,370
854003,360,459,370
854004,362,463,371
854005,361,463,370
854006,361,464,371
854007,363,461,371
854008,362,462,371
854009,362,463,369
854010,361,462,369
854011,360,461,370
854012,359,458,370
854013,360,456,368
854014,360,460,368
854015,359,459,367
854016,360,457,369
854017,359,458,368
854018,359,458,368
854019,360,457,371
854020,360,459,371
854021,361,460,370
854022,361,459,370
854023,359,461,371
854024,361,460,370
854025,362,465,371
854026,362,461,371
854027,361,463,372
854028,362,462,371
854029,361,461,371
854030,361,461,371
854031,361,462,370
854032,360,458,371
854033,361,460,369
854034,360,459,369
854035,358,458,367
854036,360,459,368
854037,359,455,369
854038,358,458,368
854039,359,456,368
854040,360,460,370
854041,361,459,370
854042,359,461,370
854043,359,460,370
854044,360,462,369
854045,360,459,370
854046,359,464,369
854047,360,462,370
854048,362,461,369
854049,362,463,371
854050,361,462,370
854051,359,460,370
854052,360,462,369
854053,360,458,369
854054,360,458,369
854055,358,459,368
854056,359,458,368
854057,360,455,368
854058,360,457,368
854059,358,458,367
854060,359,458,369
854061,360,458,370
854062,360,459,369
854063,361,461,371
854064,362,460,370
854065,361,460,372
854066,362,461,372
854067,361,461,371
854068,360,461,370
854069,362,462,370
854070,361,457,370
854071,359,460,369
854072,360,458,368
854073,360,457,368
854074,360,455,368
854075,358,457,368
854076,359,455,367
854077,358,456,367
854078,359,457,367
854079,358,458,370
854080,359,458,368
854081,360,456,368
854082,361,458,370
854083,359,459,369
854084,361,460,370
854085,360,461,370
854086,360,460,369
854087,360,461,370
854088,360,461,370
854089,360,461,369
854090,359,457,369
854091,361,458,367
854092,360,458,368
854093,359,456,368
854094,360,460,368
854095,357,457,367
854096,359,455,369
854097,359,458,367
854098,358,457,367
854099,359,456,367
854100,358,458,368
854101,359,460,368
854102,359,456,368
854103,360,458,370
854104,361,460,369
854105,361,461,369
854106,362,459,369
854107,360,462,369
854108,361,461,369
854109,359,460,368
854110,359,461,369
854111,360,460,368
854112,360,456,369
854113,360,458,368
854114,357,458,367
854115,358,456,368
854116,358,457,368
854117,358,458,367
854118,358,456,368
854119,358,456,367
854120,359,458,367
854121,360,457,369
854122,359,458,369
854123,359,461,369
854124,360,460,370
854125,359,459,368
854126,360,460,369
854127,360,461,370
854128,360,461,369
854129,360,459,369
854130,360,457,368
854131,359,461,369
854132,359,459,367
854133,359,458,368
854134,358,461,368
854135,360,456,367
854136,358,458,367
854137,357,455,368
854138,358,456,370
854139,358,456,369
854140,359,459,368
854141,358,459,370
854142,358,459,370
854143,359,460,370
854144,359,460,369
854145,360,462,368
854146,360,459,370
854147,360,457,369
854148,361,461,371
854149,358,460,368
854150,359,459,369
854151,359,458,370
854152,360,456,368
854153,358,457,368
854154,359,457,368
854155,357,459,367
854156,359,457,368
854157,360,457,368
854158,357,458,367
854159,359,457,367
854160,359,458,368
854161,360,459,369
854162,359,459,369
854163,359,461,369
854164,360,459,370
854165,359,459,370
854166,361,462,368
854167,361,459,370
854168,361,459,369
854169,360,459,370
854170,360,460,370
854171,360,459,369
854172,359,460,367
854173,360,458,368
854174,360,459,368
854175,359,458,368
854176,358,457,368
854177,356,458,367
854178,358,457,369
854179,359,456,367
854180,359,459,367
854181,359,456,369
854182,359,460,370
854183,358,458,370
854184,360,460,371
854185,360,460,370
854186,360,460,370
854187,360,460,370
854188,362,460,371
854189,360,459,372
854190,359,460,369
854191,360,457,368
854192,360,460,368
854193,360,458,369
854194,359,459,369
854195,359,455,368
854196,359,457,369
854197,359,457,368
854198,359,456,368
854199,359,457,369
854200,359,458,369
854201,359,458,369
854202,361,455,369
854203,359,459,369
854204,358,459,370
854205,360,462,370
854206,360,459,369
854207,360,459,370
854208,360,460,369
854209,360,459,369
854210,359,458,369
854211,360,459,370
854212,357,463,369
854213,359,457,368
854214,358,458,370
854215,359,459,368
854216,358,456,368
854217,357,457,368
854218,358,458,367
854219,358,457,367
854220,360,458,367
854221,359,458,368
854222,358,458,370
854223,359,462,368
854224,360,461,369
854225,360,459,369
854226,361,459,370
854227,359,461,370
854228,360,460,370
854229,360,459,369
854230,360,460,368
854231,359,459,368
854232,358,459,368
854233,359,458,368
854234,358,456,368
854235,358,457,368
854236,357,456,368
854237,358,454,366
854238,357,456,366
854239,358,457,367
854240,359,459,367
854241,358,457,368
854242,359,458,369
854243,359,458,368
854244,358,460,370
854245,362,460,370
854246,359,460,369
854247,359,459,370
854248,360,461,369
854249,359,459,369
854250,359,460,368
854251,358,457,368
854252,357,457,368
854253,357,458,367
854254,358,458,367
854255,357,458,367
854256,358,456,367
854257,359,456,367
854258,358,454,367
854259,357,457,369
854260,359,456,367
854261,360,459,368
854262,359,459,368
854263,360,458,369
854264,361,459,368
854265,361,459,369
854266,360,458,370
854267,360,458,370
854268,360,458,370
854269,360,459,371
854270,360,461,369
854271,360,458,368
854272,359,457,369
854273,358,458,369
854274,358,457,367
854275,358,457,367
854276,359,454,367
854277,358,457,366
854278,358,456,368
854279,357,454,369
854280,358,457,368
854281,358,458,367
854282,357,456,369
854283,358,459,369
854284,359,459,368
854285,359,460,370
854286,360,462,370
854287,360,461,369
854288,359,457,368
854289,359,460,369
854290,359,457,369
854291,360,456,367
854292,359,458,367
854293,359,457,367
854294,358,456,367
854295,357,457,367
854296,356,455,367
854297,358,457,367
854298,357,455,368
854299,358,455,367
854300,358,459,368
854301,359,457,369
854302,360,461,366
854303,359,457,368
854304,359,459,370
854305,360,459,370
854306,357,462,369
854307,360,457,369
854308,359,457,369
854309,360,459,369
854310,359,456,368
854311,359,461,369
854312,359,458,368
854313,360,458,367
854314,358,457,366
854315,358,457,367
854316,357,459,366
854317,357,456,366
854318,358,456,367
854319,357,457,367
854320,357,457,368
854321,358,456,367
854322,359,456,370
854323,358,457,368
854324,360,458,369
854325,359,460,369
854326,358,459,368
854327,360,459,369
854328,361,460,368
854329,360,457,368
854330,360,459,369
854331,359,458,368
854332,360,459,369
854333,358,458,367
854334,357,455,368
854335,359,455,366
854336,357,455,368
854337,359,456,365
854338,357,453,367
854339,359,455,366
854340,359,456,368
854341,359,459,367
854342,359,457,368
854343,359,457,369
854344,359,459,369
854345,360,457,369
854346,359,460,368
854347,360,460,369
854348,359,456,368
854349,358,459,369
854350,357,459,367
854351,357,458,368
854352,357,459,367
854353,358,457,367
854354,358,454,367
854355,358,455,366
854356,357,455,366
854357,358,455,365
854358,359,456,366
854359,359,455,367
854360,357,454,367
854361,358,456,367
854362,358,456,368
854363,359,456,369
854364,359,459,368
854365,359,459,368
854366,359,459,369
854367,359,457,369
854368,360,458,369
854369,359,460,370
854370,359,459,370
854371,358,458,367
854372,358,458,368
854373,359,456,367
854374,356,455,365
854375,355,456,365
854376,356,456,366
854377,357,456,367
854378,357,455,367
854379,358,456,367
854380,358,456,367
854381,358,453,366
854382,358,458,368
854383,359,457,367
854384,358,459,369
854385,360,463,368
854386,358,459,368
854387,358,455,368
854388,359,459,368
854389,357,459,369
854390,359,458,367
854391,357,457,365
854392,356,456,367
854393,357,454,366
854394,358,455,368
854395,358,453,366
854396,357,455,366
854397,357,453,367
854398,358,456,366
854399,359,454,367
854400,357,455,367
854401,358,456,367
854402,357,457,367
854403,359,456,367
854404,358,456,369
854405,359,458,367
854406,358,452,369
854407,359,457,368
854408,360,458,368
854409,359,458,368
854410,358,457,367
854411,359,457,366
854412,358,456,366
854413,357,457,367
854414,357,456,367
854415,357,455,367
854416,357,456,367
854417,356,453,367
854418,357,454,367
854419,356,454,366
854420,357,457,367
854421,356,456,366
854422,358,456,366
854423,357,456,366
854424,358,456,367
854425,357,457,369
854426,359,458,367
854427,359,458,369
854428,358,458,368
854429,357,458,367
854430,359,457,369
854431,358,454,367
854432,359,458,367
854433,358,455,367
854434,356,455,366
854435,357,456,366
854436,356,454,365
854437,356,451,366
854438,355,455,365
854439,357,455,367
854440,359,457,367
854441,358,455,367
854442,357,456,369
854443,360,455,368
854444,360,456,367
854445,356,458,368
854446,357,456,370
854447,358,458,369
854448,359,457,369
854449,358,459,366
854450,358,457,366
854451,360,459,366
854452,358,455,367
854453,358,457,366
854454,357,455,366
854455,358,456,365
854456,358,453,365
854457,356,452,366
854458,356,456,366
854459,357,455,367
854460,357,455,365
854461,356,455,367
854462,359,456,367
854463,357,458,366
854464,357,457,366
854465,357,458,367
854466,358,454,367
854467,357,458,368
854468,359,458,368
854469,359,459,367
854470,358,460,367
854471,359,459,366
854472,359,454,366
854473,359,456,365
854474,359,457,367
854475,357,457,367
854476,355,456,366
854477,356,454,366
854478,355,456,365
854479,356,455,366
854480,358,458,368
854481,357,455,368
854482,358,456,367
854483,358,453,368
854484,357,456,368
854485,359,458,368
854486,358,459,369
854487,359,459,369
854488,358,456,369
854489,359,458,369
854490,358,457,367
854491,358,458,369
854492,359,459,367
854493,357,458,368
854494,358,457,366
854495,356,457,368
854496,358,453,367
854497,356,455,366
854498,357,456,367
854499,357,455,368
854500,358,457,367
854501,358,453,368
854502,357,456,368
854503,358,459,368
854504,359,457,368
854505,359,459,369
854506,358,460,369
854507,359,459,369
854508,360,456,370
854509,361,461,369
854510,359,459,368
854511,361,459,368
854512,359,457,367
854513,359,457,367
854514,358,457,366
854515,357,457,366
854516,358,453,367
854517,357,456,366
854518,358,455,368
854519,357,454,366
854520,358,454,367
854521,357,457,366
854522,358,458,367
854523,358,458,368
854524,358,456,368
854525,357,459,368
854526,360,458,367
854527,359,457,370
854528,359,459,368
854529,359,458,368
854530,360,457,368
854531,358,458,368
854532,357,461,367
854533,358,453,368
854534,357,456,367
854535,358,456,367
854536,358,453,367
854537,356,454,367
854538,358,456,366
854539,357,456,367
854540,357,455,366
854541,358,459,366
854542,357,456,366
854543,358,459,367
854545,358,459,366
854546,357,458,368
854547,357,459,366
854548,357,459,367
854549,358,456,369
854550,357,458,368
854551,359,456,368
854552,358,457,368
854553,358,454,367
854553,356,457,368
854554,357,455,368
854555,357,454,367
854556,357,456,366
854557,356,454,365
854558,358,457,367
854559,356,456,366
854560,358,454,367
854561,357,455,367
854562,355,457,367
854563,358,457,369
854564,359,457,367
854565,358,459,367
854566,359,459,367
854567,357,457,369
854568,359,457,367
854569,358,459,367
854570,358,457,367
854571,358,455,367
854572,357,457,367
854573,357,453,367
854574,357,455,367
854575,356,455,366
854576,356,455,367
854577,357,456,366
854578,356,454,366
854579,356,455,366
854580,357,456,367
854581,358,456,367
854582,357,454,367
854583,357,457,366
854584,359,455,368
854585,358,456,368
854586,358,458,368
854587,357,459,366
854588,359,459,369
854589,358,459,367
854590,358,459,367
854591,359,458,367
854592,359,459,368
854593,359,456,367
854594,357,456,365
854595,358,456,365
854596,355,455,367
854597,358,452,366
854598,359,458,366
854599,358,456,367
854600,357,458,366
854601,357,457,367
854602,358,456,366
854603,357,455,368
854604,358,455,367
854605,359,458,369
854606,358,460,369
854607,359,457,369
854608,360,458,367
854609,360,458,368
854610,359,455,367
854611,359,457,369
854612,361,457,368
854613,359,455,368
854614,357,457,367
854615,359,458,367
854616,359,455,367
854617,358,457,368
854618,358,456,368
854619,358,456,367
854620,357,456,369
854621,358,458,368
854622,360,458,368
854623,359,456,369
854624,360,458,369
854625,359,460,370
854626,360,459,369
854627,359,461,370
854628,358,459,369
854629,359,460,368
854630,360,459,369
854631,358,460,369
854632,360,460,369
854633,359,458,366
854634,357,454,367
854635,358,457,367
854636,358,456,367
854637,358,459,367
854638,358,457,367
854639,359,457,368
854640,359,458,367
854641,359,459,368
854642,359,459,368
854643,359,456,369
854644,360,459,369
854645,359,460,369
854646,360,459,369
854647,360,460,369
854648,359,459,369
854649,360,462,370
854650,359,459,369
854651,359,460,369
854652,359,458,370
854653,359,458,368
854654,358,457,368
854655,358,453,368
854656,356,458,368
854657,359,457,367
854658,358,458,366
854659,358,458,367
854660,358,458,367
854661,359,460,367
854662,359,456,369
854663,360,459,369
854664,362,460,370
854665,361,459,371
854666,360,463,369
854667,359,458,369
854668,361,460,370
854669,360,460,369
854670,359,460,369
854671,361,462,369
854672,359,460,369
854673,360,460,370
854674,359,460,366
854675,356,455,367
854676,358,456,367
854677,357,456,367
854678,359,453,367
854679,359,457,367
854680,359,458,368
854681,359,458,368
854682,358,457,370
854683,360,459,367
854684,361,460,369
854685,361,460,370
854686,360,460,369
854687,358,460,370
854688,359,462,369
854689,360,460,371
854690,359,459,369
854691,358,459,369
854692,358,458,369
854693,360,460,367
854694,358,457,368
854695,358,458,368
854696,357,457,368
854697,358,456,369
854698,358,459,366
854699,359,458,368
854700,359,457,369
854701,359,457,368
854702,359,459,369
854703,359,461,369
854704,359,460,370
854705,359,460,369
854706,360,461,369
854707,360,460,370
854708,359,457,370
854709,360,459,370
854710,360,457,370
854711,360,461,368
854712,360,460,369
854713,358,458,369
854714,359,460,369
854715,358,457,368
854716,358,457,369
854717,356,458,368
854718,359,457,366
854719,359,457,367
854720,358,454,367
854721,360,460,370
854722,359,455,368
854723,360,460,370
854724,361,460,371
854725,361,461,369
854726,360,461,371
854727,359,460,370
854728,361,462,369
854729,360,463,368
854730,360,457,370
854731,360,459,371
854732,359,459,367
854733,360,459,369
854734,359,460,368
854735,360,456,369
854736,358,456,369
854737,359,457,367
854738,360,457,368
854739,360,458,368
854740,359,457,368
854741,359,459,368
854742,360,458,368
854743,361,461,369
854744,360,459,370
854745,359,461,369
854746,361,460,370
854747,361,459,370
854748,360,462,370
854749,362,461,369
854750,361,464,370
854751,360,459,368
854752,361,459,370
854753,359,460,368
854754,360,456,367
854755,359,459,367
854756,358,458,368
854757,360,456,368
854758,359,454,368
854759,357,456,368
854760,358,458,368
854761,361,459,369
854762,360,457,370
854763,360,459,370
854764,360,461,369
854765,359,461,371
854766,361,461,368
854767,361,461,371
854768,360,460,371
854769,360,462,370
854770,360,460,369
854771,360,461,370
854772,361,460,369
854773,359,460,369
854774,360,458,369
1742212096166,NEW REP,,
854775,357,459,368
854776,359,460,367
854777,358,459,369
854778,359,457,368
854779,360,459,369
854780,359,458,367
854781,360,458,369
854782,361,458,369
854783,359,460,370
854784,360,459,368
854785,360,463,370
854786,362,460,370
854787,361,462,370
854788,361,462,371
854789,360,461,370
854790,361,461,371
854791,359,459,371
854792,359,457,369
854793,359,460,369
854794,360,459,369
854795,359,459,368
854796,358,459,369
854797,359,458,369
854798,360,458,369
854799,359,456,369
854800,358,456,370
854801,359,460,368
854802,359,460,369
854803,361,460,369
854804,360,461,369
854805,360,462,371
854806,362,459,372
854807,359,462,370
854808,359,462,370
854809,360,460,369
854810,360,459,369
854811,360,460,369
854812,359,460,369
854813,360,460,369
854814,360,456,367
854815,358,457,370
854816,358,457,367
854817,358,458,367
854818,357,457,369
854819,358,455,367
854820,357,459,369
854821,360,459,368
854822,358,459,370
854823,360,460,369
854824,360,458,369
854825,361,462,371
854826,359,460,370
854827,360,459,372
854828,360,460,372
854829,359,460,371
854830,360,460,370
854831,360,462,370
854832,361,459,369
854833,360,460,369
854834,360,457,368
854835,359,458,368
854836,358,458,368
854837,359,458,367
854838,358,457,367
854839,359,457,368
854840,359,460,368
854841,359,458,369
854842,359,460,370
854843,361,457,370
854844,360,460,370
854845,360,460,371
854846,359,461,370
854847,361,460,370
854848,361,462,370
854849,360,462,371
854850,360,460,370
854851,361,459,368
854852,361,462,369
854853,359,459,368
854854,359,459,369
854855,359,460,369
854856,359,457,368
854857,358,458,368
854858,359,456,368
854859,358,457,368
854860,360,457,368
854861,358,457,369
854862,360,460,370
854863,361,456,369
854864,361,461,371
854865,359,462,370
854866,362,460,371
854867,361,462,371
854868,361,462,371
854869,361,462,371
854870,360,461,369
854871,360,460,370
854872,360,461,370
854873,359,461,368
854874,360,462,369
854875,360,460,369
854876,359,455,369
854877,359,458,367
854878,359,455,370
854879,359,459,368
854880,359,458,368
854881,360,460,369
854882,359,462,370
854883,358,461,370
854884,360,461,370
854885,361,460,370
854886,361,461,372
854887,362,461,370
854888,361,462,371
854889,360,462,370
854890,361,461,369
854891,361,462,370
854892,360,461,369
854893,360,460,368
854894,360,458,370
854895,358,456,369
854896,360,458,369
854897,358,458,367
854898,359,457,369
854899,359,460,369
854900,360,459,369
854901,360,457,370
854902,359,460,369
854903,362,461,371
854904,359,461,371
854905,361,459,371
854906,361,461,370
854907,361,462,371
854908,360,463,371
854909,361,461,371
854910,360,461,371
854911,361,459,370
854912,360,461,370
854913,359,460,370
854914,360,460,369
854915,359,460,367
854916,360,458,368
854917,359,459,369
854918,360,459,368
854919,360,457,367
854920,359,458,369
854921,359,458,369
854922,361,459,370
854923,361,461,370
854924,360,458,369
854925,361,462,371
854926,362,460,371
854927,361,462,370
854928,361,459,370
854929,360,459,370
854930,361,461,370
854931,361,460,368
854932,359,460,370
854933,360,459,369
854934,361,459,368
854935,359,459,368
854936,359,456,369
854937,358,458,369
854938,359,456,368
854939,358,456,368
854940,358,456,369
854941,360,459,369
854942,358,458,370
854943,358,459,370
854944,360,461,370
854945,361,461,369
854946,360,460,369
854947,360,461,370
854948,359,462,371
854949,361,459,370
854950,361,460,370
854951,362,461,369
854952,360,457,370
854953,360,460,368
854954,359,460,366
854955,359,460,368
854956,357,457,367
854957,360,454,368
854958,359,455,367
854959,358,457,368
854960,359,456,369
854961,359,457,368
854962,360,455,368
854963,361,460,370
854964,361,459,370
854965,360,461,370
854966,362,460,371
854967,362,461,370
854968,360,463,370
854969,360,460,370
854970,360,462,370
854971,359,460,371
854972,359,460,369
854973,360,460,368
854974,361,459,367
854975,360,458,368
854976,358,457,367
854977,359,456,368
854978,358,454,368
854979,359,457,368
854980,359,458,367
854981,359,458,368
854982,359,459,369
854983,359,459,368
854984,359,458,369
854985,361,459,369
854986,362,458,369
854987,360,461,368
854988,360,458,369
854989,361,458,370
854990,360,461,371
854991,361,461,368
854992,359,460,369
854993,360,460,367
854994,359,459,368
854995,358,455,367
854996,359,458,367
854997,357,457,367
854998,356,456,367
854999,359,457,367
855000,359,457,368
855001,359,458,367
855002,359,456,368
855003,359,460,369
855004,359,459,368
855005,362,460,369
855006,360,459,370
855007,361,461,369
855008,360,462,370
855009,362,461,370
855010,360,462,367
855011,359,462,368
855012,361,462,370
855013,359,461,370
855014,359,460,369
855015,360,460,368
855016,360,460,369
855017,360,459,367
855018,360,458,369
855019,359,456,370
855020,360,458,370
855021,360,458,368
855022,361,458,370
855023,360,459,369
855024,360,461,369
855025,361,460,369
855026,362,459,370
855027,361,460,369
855028,360,463,368
855029,361,462,369
855030,362,462,370
855031,361,460,370
855032,361,461,370
855033,361,458,370
855034,360,461,371
855035,361,459,371
855036,361,460,370
855037,361,460,371
855038,359,461,371
855039,360,459,369
855040,361,459,369
855041,359,461,371
855042,360,460,371
855043,362,460,371
855044,362,462,370
855045,362,462,370
855046,362,462,371
855047,361,462,371
855048,361,461,371
855049,362,463,369
855050,360,462,370
855051,361,461,371
855052,360,462,368
855053,359,459,368
855054,359,459,368
855055,360,458,369
855056,359,461,369
855057,359,458,370
855058,360,458,369
855059,359,459,368
855060,360,459,368
855061,359,458,369
855062,358,459,368
855063,359,460,369
855064,360,461,370
855065,361,462,371
855066,362,463,372
855067,362,463,372
855068,361,462,370
855069,362,463,370
855070,362,461,372
855071,361,461,370
855072,360,461,370
855073,359,461,369
855074,359,457,369
855075,359,461,368
855076,359,457,368
855077,359,459,368
855078,358,458,370
855079,359,458,369
855080,360,458,370
855081,360,459,370
855082,361,460,369
855083,361,462,371
855084,362,462,371
855085,361,462,372
855086,362,462,371
855087,361,463,372
855088,360,464,371
855089,360,463,371
855090,361,460,372
855091,360,461,371
855092,362,461,370
855093,361,461,371
855094,361,463,370
855095,361,461,370
855096,360,462,369
855097,363,462,369
855098,361,463,371
855099,361,463,371
855100,363,464,372
855101,362,463,372
855102,362,466,372
855103,365,462,374
855104,363,464,371
855105,363,464,373
855106,364,465,373
855107,363,464,373
855108,363,459,372
855109,363,462,371
855110,361,460,372
855111,362,462,370
855112,361,459,370
855113,360,457,368
855114,361,457,367
855115,359,457,368
855116,358,461,367
855117,358,455,366
855118,357,456,368
855119,358,458,370
855120,358,459,369
855121,359,460,370
855122,359,459,369
855123,360,458,369
855124,361,459,370
855125,360,463,372
855126,361,463,372
855127,363,463,371
855128,363,463,371
855129,362,462,372
855130,361,464,372
855131,361,460,370
855132,360,460,370
855133,360,458,369
855134,358,456,368
855135,357,456,368
855136,357,453,365
855137,359,454,366
855138,358,456,367
855139,358,459,368
855140,359,460,370
855141,360,463,369
855142,363,460,372
855143,363,465,372
855144,364,467,374
855145,365,469,375
855146,365,470,375
855147,365,471,376
855148,367,472,378
855149,368,470,377
855150,367,476,380
855151,368,475,380
855152,368,478,380
855153,368,475,377
855154,369,473,380
855155,368,471,379
855156,368,472,379
855157,368,467,377
855158,368,468,377
855159,370,471,377
855160,369,471,378
855161,370,470,379
855162,369,470,379
855163,370,475,380
855164,371,476,380
855165,371,476,380
855166,370,477,382
855167,372,477,381
855168,369,473,382
855169,371,475,380
855170,371,475,380
855171,370,474,380
855172,370,473,378
855173,368,473,377
855174,367,470,378
855175,366,466,377
855176,364,464,374
855177,365,464,375
855178,363,462,373
855179,364,460,372
855180,361,459,372
855181,361,460,372
855182,360,460,371
855183,360,460,369
855184,361,460,371
855185,360,459,368
855186,360,457,368
855187,359,457,368
855188,360,458,369
855189,358,459,369
855190,359,458,367
855191,358,458,366
855192,358,457,367
855193,359,459,367
855194,358,458,367
855195,357,456,366
855196,359,453,365
855197,357,455,365
855198,356,454,365
855199,355,452,366
855200,357,453,367
855201,356,455,366
855202,357,455,367
855203,358,453,367
855204,359,457,367
855205,358,455,368
855206,358,457,368
855207,357,457,366
855208,359,456,367
855209,357,457,367
855210,357,455,366
855211,357,454,365
855212,357,455,366
855213,355,452,366
855214,354,454,364
855215,355,453,364
855216,355,456,365
855217,356,455,366
855218,355,456,368
855219,357,459,366
855220,359,459,368
855221,359,457,369
855222,359,460,371
855223,361,462,370
855224,363,463,373
855225,361,463,371
855226,360,463,371
855227,362,461,371
855228,360,460,370
855229,361,459,370
855230,359,458,368
855231,358,455,368
855232,359,457,368
855233,357,456,366
855234,357,455,365
855235,358,453,367
855236,356,456,367
855237,358,459,368
855238,359,459,368
855239,359,459,369
855240,360,462,371
855241,363,464,371
855242,363,467,374
855243,364,469,373
855244,366,471,376
855245,368,475,378
855246,369,477,379
855247,370,479,380
855248,371,475,380
855249,371,475,381
855250,371,477,381
855251,370,473,381
855252,370,470,377
855253,367,466,377
855254,365,462,373
855255,363,458,374
855256,361,458,370
855257,359,457,369
855258,358,454,368
855259,358,452,368
855260,359,456,367
855261,359,455,367
855262,359,457,368
855263,359,459,368
855264,359,462,369
855265,360,462,370
855266,364,461,371
855267,361,464,373
855268,362,465,374
855269,364,467,374
855270,362,463,373
855271,363,461,372
855272,363,459,371
855273,361,459,370
855274,360,458,370
855275,358,456,367
855276,358,456,367
855277,359,458,367
855278,357,457,367
855279,358,456,367
855280,359,459,370
855281,359,460,369
855282,361,462,370
855283,362,466,371
855284,364,466,374
855285,364,467,374
855286,364,468,374
855287,364,468,374
855288,365,468,374
855289,365,468,375
855290,367,470,373
855291,366,466,376
855292,367,468,374
855293,365,466,375
855294,365,468,375
855295,365,464,376
855296,366,465,374
855297,364,466,374
855298,364,467,375
855299,365,468,374
855300,365,463,374
855301,366,468,375
855302,365,466,376
855303,366,468,375
855304,364,465,374
855305,364,463,373
855306,364,463,373
855307,364,463,372
855308,361,460,370
855309,362,461,372
855310,361,458,369
855311,359,456,368
855312,358,455,369
855313,358,455,367
855314,356,457,364
855315,357,458,367
855316,358,454,367
855317,360,458,367
855318,359,457,369
855319,359,456,368
855320,357,455,368
855321,359,454,368
855322,357,453,366
855323,356,453,365
855324,355,452,364
855325,355,452,364
855326,355,450,365
855327,355,451,365
855328,356,453,365
855329,356,454,365
855330,356,455,366
855331,357,456,367
855332,356,457,364
855333,355,455,365
855334,355,453,365
855335,356,450,363
855336,354,449,362
855337,353,448,362
855338,353,450,362
855339,352,449,362
855340,353,449,362
855341,353,449,362
855342,353,450,362
855343,354,451,362
855344,354,453,364
855345,354,453,363
855346,356,453,364
855347,357,455,365
855348,358,457,366
855349,358,458,367
855350,358,460,368
855351,359,460,368
855352,360,458,367
855353,357,458,366
855354,356,453,367
855355,356,455,366
855356,356,452,364
855357,356,455,364
855358,357,456,366
855359,357,460,368
855360,359,461,367
855361,360,463,371
855362,361,465,370
855363,363,467,372
855364,364,465,374
855365,363,463,373
855366,363,461,373
855367,361,459,371
855368,360,456,369
855369,358,454,369
855370,355,451,366
855371,354,449,364
855372,353,448,363
855373,352,445,361
855374,351,447,361
855375,352,446,361
855376,350,447,359
855377,352,443,359
855378,351,446,359
855379,352,448,359
855380,351,446,360
855381,352,448,361
855382,352,448,360
855383,351,448,360
855384,352,451,360
855385,354,450,363
855386,354,452,364
855387,353,454,364
855388,354,454,365
855389,357,457,364
855390,357,456,366
855391,357,454,365
855392,356,455,366
855393,356,455,365
855394,355,451,364
855395,353,449,362
855396,352,448,362
855397,351,447,361
855398,353,446,360
855399,352,445,361
855400,351,445,360
855401,351,447,361
855402,350,444,361
855403,352,444,361
855404,351,446,360
855405,350,445,361
855406,350,444,359
855407,348,443,358
855408,348,443,356
855409,349,441,357
855410,348,442,356
855411,346,441,356
855412,346,443,356
855413,347,444,358
855414,349,441,356
855415,348,441,355
855416,347,439,356
855417,346,437,355
855418,344,438,354
855419,346,440,355
855420,347,443,355
855421,347,449,359
855422,351,453,362
855423,352,457,363
855424,355,459,365
855425,357,459,366
855426,359,460,368
855427,357,460,367
855428,359,455,367
855429,357,453,366
855430,355,450,363
855431,353,451,362
855432,353,444,362
855433,350,446,360
855434,349,443,357
855435,349,443,358
855436,349,442,358
855437,348,441,357
855438,347,439,357
855439,349,439,356
855440,348,440,356
855441,348,441,357
855442,348,442,357
855443,348,445,357
855444,349,442,357
855445,348,441,356
855446,350,445,358
855447,349,442,358
855448,349,443,359
855449,351,446,360
855450,349,445,358
855451,350,447,359
855452,350,444,358
855453,351,446,359
855454,351,447,359
855455,351,449,358
855456,351,448,360
855457,351,449,361
855458,352,448,359
855459,352,447,361
855460,351,447,360
855461,350,445,360
855462,352,445,359
855463,351,445,360
855464,351,446,361
855465,349,446,361
855466,349,448,360
855467,351,448,360
855468,350,451,362
855469,352,451,360
855470,351,453,362
855471,351,451,362
855472,353,450,361
855473,353,447,361
855474,352,448,362
855475,352,445,360
855476,351,447,359
855477,349,445,359
855478,350,444,359
855479,351,442,358
855480,351,442,359
855481,350,443,358
855482,350,445,358
855483,350,445,360
855484,350,447,360
855485,351,447,360
855486,353,449,362
855487,352,453,363
855488,352,454,363
855489,354,457,364
855490,357,458,365
855491,356,457,365
855492,357,455,366
855493,357,457,367
855494,357,455,365
855495,357,456,365
855496,358,458,365
855497,358,457,368
855498,357,457,368
855499,357,454,368
855500,358,456,368
855501,358,457,366
855502,359,456,368
855503,358,455,367
855504,357,455,367
855505,356,456,368
855506,358,455,368
855507,359,461,369
855508,361,461,370
855509,361,466,372
855510,364,468,373
855511,365,469,375
855512,366,470,374
855513,366,471,375
855514,365,470,375
855515,366,468,376
855516,366,465,376
855517,365,464,375
855518,365,461,374
855519,364,459,372
855520,364,461,372
855521,361,458,371
855522,362,456,370
855523,358,458,370
855524,359,456,369
855525,359,459,369
855526,359,456,369
855527,358,460,367
855528,360,459,368
855529,359,457,369
855530,358,458,367
855531,358,455,368
855532,359,458,368
855533,359,462,369
855534,360,464,370
855535,362,465,371
855536,363,467,372
855537,363,467,374
855538,365,468,375
855539,367,473,377
855540,369,473,379
855541,368,472,378
855542,369,472,381
855543,367,471,378
855544,369,474,378
855545,368,470,378
855546,368,466,378
855547,368,467,377
855548,366,466,376
855549,364,465,375
855550,364,462,373
855551,362,462,371
855552,362,460,371
855553,362,458,370
855554,360,455,368
855555,359,454,368
855556,357,454,366
855557,357,455,366
855558,358,456,365
855559,356,455,366
855560,358,456,367
855561,358,457,367
855562,359,458,370
855563,363,463,371
855564,363,467,373
855565,366,474,372
855566,368,476,378
855567,369,479,379
855568,372,478,381
855569,374,482,384
855570,374,484,383
855571,374,484,386
855572,375,483,385
855573,375,481,385
855574,373,480,384
855575,375,479,383
855576,374,478,384
855577,374,479,384
855578,374,478,384
855579,372,472,383
855580,373,472,383
855581,369,470,381
855582,369,468,379
855583,367,467,377
855584,368,468,377
855585,368,468,378
855586,366,466,377
855587,366,471,376
855588,367,467,376
855589,367,467,376
855590,365,469,376
855591,367,470,376
855592,367,472,377
855593,366,472,375
855594,366,472,376
855595,365,471,376
855596,367,469,375
855597,367,469,376
855598,366,464,375
855599,365,464,376
855600,364,465,375
855601,364,463,374
855602,365,464,372
855603,364,465,374
855604,366,470,375
855605,367,470,377
855606,368,472,377
855607,368,476,380
855608,369,476,381
855609,371,477,381
855610,371,475,380
855611,370,474,380
855612,369,472,379
855613,368,471,379
855614,365,469,375
855615,367,470,376
855616,367,469,378
855617,366,472,378
855618,368,473,377
855619,370,473,378
855620,370,477,381
855621,371,477,381
855622,371,480,382
855623,372,476,383
855624,371,474,382
855625,370,471,380
855626,369,470,378
855627,370,468,379
855628,368,469,377
855629,368,469,377
855630,369,470,378
855631,368,473,377
855632,368,473,379
855633,368,475,378
855634,369,477,379
855635,370,475,382
855636,370,475,381
855637,369,476,381
855638,369,476,382
855639,370,475,382
855640,371,471,379
855641,370,473,380
855642,371,474,380
855643,370,473,380
855644,370,470,380
855645,368,468,378
855646,368,465,376
855647,364,465,374
855648,363,461,373
855649,363,462,371
855650,363,464,372
855651,362,462,372
855652,361,462,371
855653,363,464,372
855654,364,465,372
855655,361,465,373
855656,361,465,373
855657,362,472,374
855658,364,469,375
855659,364,469,375
855660,366,467,375
855661,364,467,375
855662,365,467,376
855663,364,462,375
855664,363,463,374
855665,364,463,372
855666,362,461,372
855667,361,461,371
855668,361,460,371
855669,359,461,370
855670,359,459,371
855671,360,459,369
855672,359,456,369
855673,359,456,368
855674,360,459,367
855675,360,461,370
855676,361,459,370
855677,361,460,370
855678,362,463,371
855679,364,467,372
855680,364,467,372
855681,366,463,374
855682,365,465,375
855683,366,466,375
855684,366,468,376
855685,367,471,377
855686,368,471,378
855687,368,474,380
855688,369,473,378
855689,369,472,378
855690,368,470,377
855691,366,467,376
855692,366,461,374
855693,364,463,374
855694,364,465,372
855695,364,466,373
855696,365,464,372
855697,364,466,373
855698,364,465,373
855699,363,465,374
855700,365,462,373
855701,363,461,372
855702,362,462,372
855703,361,459,372
855704,360,460,372
855705,362,464,372
855706,363,469,373
855707,365,472,376
855708,367,475,378
855709,369,476,379
855710,370,474,380
855711,369,475,381
855712,370,470,379
855713,368,470,379
855714,367,465,375
855715,365,460,374
855716,364,458,371
855717,362,458,370
855718,362,458,370
855719,362,460,371
855720,362,467,372
855721,363,465,372
855722,365,466,374
855723,365,465,372
855724,362,465,373
855725,360,459,373
855726,362,457,370
855727,359,458,370
855728,359,459,369
855729,360,459,368
855730,358,460,369
855731,360,460,370
855732,360,461,368
855733,361,460,370
855734,360,459,368
855735,359,453,367
855736,358,453,367
855737,356,453,366
855738,356,451,367
855739,356,455,366
855740,356,453,367
855741,357,456,366
855742,359,460,367
855743,360,465,369
855744,362,468,372
855745,364,474,375
855746,368,475,377
855747,368,473,377
855748,367,470,376
855749,366,466,375
855750,363,463,374
855751,362,458,372
855752,359,455,369
855753,360,454,367
855754,356,452,368
855755,355,447,364
855756,354,449,363
855757,354,448,360
855758,353,445,361
855759,353,450,362
855760,355,452,364
855761,355,456,365
855762,356,459,365
855763,359,462,368
855764,361,465,370
855765,362,467,371
855766,365,469,374
855767,365,468,375
855768,366,470,375
855769,367,470,377
855770,369,474,378
855771,370,478,380
855772,372,481,383
855773,373,480,383
855774,370,476,381
855775,369,471,382
855776,369,466,377
855777,364,460,375
855778,361,456,371
855779,359,454,368
855780,358,453,366
855781,359,453,367
855782,358,455,366
855783,357,457,366
855784,356,457,368
855785,357,457,367
855786,358,459,367
855787,358,458,367
855788,359,458,368
855789,359,460,368
855790,358,456,367
855791,357,462,368
855792,360,462,370
855793,361,468,373
855794,364,468,374
855795,366,477,379
855796,367,478,378
855797,370,479,381
855798,371,478,383
855799,371,477,383
855800,371,473,379
855801,369,470,381
855802,369,467,378
855803,370,468,378
855804,367,468,377
855805,369,471,378
855806,370,475,379
855807,370,475,381
855808,372,480,382
855809,372,474,381
855810,370,472,379
855811,369,468,377
855812,365,461,374
855813,363,456,371
855814,361,455,368
855815,357,455,366
855816,358,452,366
855817,355,448,364
855818,354,450,364
855819,355,450,364
855820,356,452,365
855821,357,460,368
855822,358,467,370
855823,363,473,374
855824,366,478,378
855825,369,482,380
855826,370,480,381
855827,371,476,383
855828,371,474,380
855829,370,469,379
855830,368,471,378
855831,367,467,377
855832,367,467,375
855833,367,471,377
855834,366,469,377
855835,367,469,377
855836,365,467,375
855837,365,465,374
855838,364,464,373
855839,363,459,373
855840,362,457,372
855841,361,455,370
855842,360,454,368
855843,359,454,368
855844,358,453,366
855845,356,453,366
855846,356,454,365
855847,357,458,367
855848,360,463,368
855849,361,468,370
855850,363,472,373
855851,364,471,375
855852,365,470,374
855853,363,466,373
855854,362,459,372
855855,360,454,370
855856,357,450,366
855857,356,447,363
855858,353,445,363
855859,353,443,361
855860,352,446,361
855861,352,447,361
855862,353,453,362
855863,357,457,365
855864,357,462,368
855865,361,467,372
855866,363,476,374
855867,366,479,378
855868,369,481,379
855869,372,477,380
855870,370,473,381
855871,369,467,377
855872,366,463,375
855873,362,455,372
855874,360,453,369
855875,359,454,368
855876,358,455,367
855877,359,456,367
855878,358,456,367
855879,358,457,369
855880,359,456,368
855881,358,457,369
855882,359,459,369
855883,361,462,370
855884,359,461,370
855885,361,462,371
855886,360,459,371
855887,360,458,370
855888,358,454,368
855889,357,451,365
855890,355,450,364
855891,354,449,363
855892,352,447,360
855893,352,449,360
855894,353,451,362
855895,353,454,361
855896,355,455,364
855897,355,454,365
855898,354,448,365
855899,352,448,362
855900,352,443,360
855901,350,440,358
855902,349,441,357
855903,349,443,358
855904,349,445,359
855905,352,447,360
855906,352,451,361
855907,354,456,363
855908,355,459,365
855909,359,460,367
855910,361,464,370
855911,364,467,372
855912,364,472,375
855913,366,474,376
855914,367,472,378
855915,367,472,377
855916,365,467,375
855917,365,463,373
855918,362,461,371
855919,361,456,370
855920,358,453,368
855921,358,449,367
855922,355,449,366
855923,355,449,363
855924,353,446,363
855925,352,443,361
855926,352,443,359
855927,348,440,358
855928,348,442,357
855929,348,441,357
855930,347,439,356
855931,346,439,354
855932,345,440,356
855933,348,444,355
855934,348,445,357
855935,349,447,356
855936,350,449,358
855937,351,453,360
855938,356,460,364
855939,359,469,369
855940,364,474,375
855941,369,482,379
855942,373,490,384
855943,378,496,388
855944,380,493,391
855945,380,492,391
855946,378,487,390
855947,376,479,388
855948,374,473,385
855949,371,468,382
855950,368,465,379
855951,365,463,375
855952,362,458,371
855953,360,451,369
855954,358,450,367
855955,356,446,363
855956,353,442,361
855957,350,440,359
855958,348,437,356
855959,349,438,356
855960,347,440,355
855961,346,439,355
855962,346,439,354
855963,347,442,356
855964,348,443,357
855965,349,446,357
855966,350,450,360
855967,352,450,359
855968,354,452,361
855969,354,453,363
855970,354,453,363
855971,353,450,362
855972,353,451,363
855973,353,453,363
855974,352,452,362
855975,354,450,363
855976,354,448,362
855977,353,448,361
855978,350,446,360
855979,350,445,359
855980,348,442,357
855981,350,442,357
855982,350,443,357
855983,348,443,358
855984,350,446,358
855985,351,448,360
855986,351,449,359
855987,351,451,362
855988,352,448,362
855989,350,448,361
855990,351,445,359
855991,349,440,358
855992,347,442,356
855993,345,439,354
855994,344,438,354
855995,344,436,352
855996,343,437,352
855997,344,436,351
855998,344,436,352
855999,343,435,351
856000,343,436,353
856001,343,437,352
856002,343,436,352
856003,344,436,354
856004,344,440,353
856005,346,441,354
856006,346,441,354
856007,348,444,358
856008,349,446,359
856009,351,452,359
856010,352,449,360
856011,352,453,360
856012,353,457,364
856013,356,455,366
856014,357,457,366
856015,358,460,366
856016,358,459,368
856017,359,459,368
856018,359,459,369
856019,359,457,369
856020,360,458,368
856021,359,456,368
856022,360,457,368
856023,358,455,369
856024,359,458,368
856025,356,457,367
856026,356,454,368
856027,356,453,366
856028,356,453,365
856029,357,449,364
856030,355,451,364
856031,354,452,364
856032,355,448,362
856033,355,452,364
856034,356,453,364
856035,354,450,362
856036,353,450,363
856037,353,449,361
856038,354,446,362
856039,353,444,363
856040,355,449,363
856041,353,451,362
856042,354,452,363
856043,355,453,365
856044,356,453,365
856045,358,458,366
856046,357,457,367
856047,358,458,367
856048,358,458,368
856049,358,458,367
856050,360,457,367
856051,359,457,368
856052,357,457,369
856053,358,456,367
856054,359,456,367
856055,356,454,365
856056,358,455,365
856057,357,452,366
856058,353,448,363
856059,354,448,362
856060,354,447,362
856061,351,447,362
856062,352,448,361
856063,351,448,362
856064,352,450,361
856065,351,451,362
856066,353,448,362
856067,353,450,362
856068,353,452,363
856069,353,451,364
856070,355,452,363
856071,354,453,363
856072,354,455,364
856073,355,452,365
856074,355,453,365
856075,356,454,364
856076,353,451,362
856077,353,451,362
856078,352,449,361
856079,352,448,361
856080,352,446,361
856081,353,446,362
856082,352,448,361
856083,351,447,361
856084,352,450,362
856085,352,450,362
856086,352,454,362
856087,355,454,365
856088,355,455,364
856089,354,455,365
856090,355,457,366
856091,355,456,367
856092,355,456,366
856093,356,460,364
856094,355,458,364
856095,356,454,364
856096,355,451,365
856097,355,454,365
856098,355,453,364
856099,356,451,365
856100,356,452,365
856101,357,452,365
856102,354,451,365
856103,353,450,364
856104,355,450,364
856105,354,447,362
856106,353,451,363
856107,353,452,363
856108,355,452,363
856109,355,453,366
856110,356,452,365
856111,355,456,364
856112,357,454,364
856113,355,455,364
856114,356,455,366
856115,356,456,366
856116,356,457,365
856117,357,458,365
856118,358,457,365
856119,357,457,366
856120,358,456,366
856121,358,453,366
856122,356,452,364
856123,355,452,364
856124,356,452,365
856125,356,454,365
856126,357,456,366
856127,357,457,366
856128,357,456,368
856129,356,454,366
856130,357,456,365
856131,355,454,366
856132,353,451,364
856133,353,450,363
856134,354,449,364
856135,353,449,362
856136,351,450,362
856137,351,449,360
856138,352,448,360
856139,352,450,361
856140,352,450,361
856141,353,449,363
856142,355,451,364
856143,356,455,365
856144,357,459,367
856145,359,459,368
856146,361,464,370
856147,361,467,372
856148,364,464,372
856149,363,468,374
856150,364,468,373
856151,363,469,373
856152,363,466,373
856153,361,464,372
856154,362,463,371
856155,360,459,369
856156,361,459,369
856157,360,457,368
856158,357,456,368
856159,357,455,368
856160,356,454,365
856161,357,452,365
856162,355,454,366
856163,358,453,365
856164,358,457,368
856165,359,460,369
856166,360,459,370
856167,360,458,369
856168,359,457,369
856169,359,460,368
856170,359,461,367
856171,360,460,370
856172,357,459,369
856173,358,456,368
856174,359,458,368
856175,356,454,366
856176,355,455,366
856177,356,452,367
856178,356,452,364
856179,355,453,365
856180,356,452,365
856181,356,455,366
856182,356,457,368
856183,357,457,367
856184,360,461,369
856185,360,462,371
856186,359,460,369
856187,361,461,371
856188,360,463,372
856189,361,461,371
856190,361,460,370
856191,360,460,371
856192,360,461,370
856193,361,462,370
856194,362,463,371
856195,362,462,370
856196,361,464,372
856197,363,462,371
856198,362,464,373
856199,362,463,373
856200,363,462,371
856201,361,463,373
856202,362,462,372
856203,363,460,372
856204,364,462,371
856205,361,459,372
856206,363,462,371
856207,363,462,372
856208,361,463,371
856209,362,463,371
856210,361,461,371
856211,361,461,369
856212,359,460,369
856213,362,461,370
856214,361,462,369
856215,359,460,370
856216,359,459,369
856217,359,458,369
856218,359,454,367
856219,357,453,365
856220,355,452,365
856221,355,452,365
856222,356,454,365
856223,355,453,363
856224,355,453,363
856225,355,454,366
856226,357,457,367
856227,357,457,367
856228,357,455,367
856229,358,456,367
856230,359,457,367
856231,356,455,366
856232,356,453,366
856233,355,452,365
856234,355,451,364
856235,354,449,364
856236,355,450,361
856237,355,451,363
856238,353,449,361
856239,354,452,363
856240,354,449,363
856241,355,452,365
856242,355,451,364
856243,356,456,364
856244,354,455,364
856245,355,455,365
856246,357,456,368
856247,357,455,366
856248,358,458,367
856249,356,457,367
856250,359,456,367
856251,356,459,366
856252,356,458,368
856253,358,458,368
856254,358,457,367
856255,358,457,368
856256,357,460,367
856257,359,461,369
856258,361,463,370
856259,360,462,371
856260,359,463,369
856261,361,460,371
856262,361,461,371
856263,359,456,369
856264,359,455,368
856265,358,457,367
856266,359,459,369
856267,359,463,370
856268,362,465,372
856269,363,467,373
856270,364,467,373
856271,364,467,375
856272,364,467,374
856273,363,466,372
856274,361,463,372
856275,362,463,370
856276,361,458,370
856277,360,459,368
856278,360,457,370
856279,360,456,368
856280,358,451,368
856281,357,456,368
856282,359,453,368
856283,356,457,368
856284,359,454,366
856285,359,457,368
856286,359,460,369
856287,359,460,368
856288,359,454,367
856289,358,457,369
856290,358,456,368
856291,358,452,365
856292,356,455,364
856293,355,452,364
856294,354,451,363
856295,354,452,362
856296,352,452,362
856297,354,451,363
856298,355,452,364
856299,355,454,365
856300,357,454,365
856301,356,455,365
856302,355,454,366
856303,357,455,365
856304,356,455,366
856305,355,453,366
856306,355,454,366
856307,356,456,367
856308,354,454,365
856309,355,456,365
856310,356,454,365
856311,357,453,367
856312,356,454,366
856313,355,455,365
856314,355,454,364
856315,356,454,364
856316,354,451,363
856317,354,451,364
856318,354,449,363
856319,353,449,362
856320,352,448,363
856321,352,448,361
856322,352,447,361
856323,353,449,363
856324,352,452,361
856325,356,454,364
856326,355,454,364
856327,357,456,365
856328,358,457,365
856329,356,456,366
856330,357,456,366
856331,357,456,365
856332,356,455,366
856333,356,454,366
856334,356,453,365
856335,354,453,364
856336,355,451,363
856337,353,451,363
856338,353,446,363
856339,352,443,361
856340,352,446,361
856341,351,447,360
856342,352,445,360
856343,353,447,361
856344,353,452,361
856345,353,453,362
856346,356,453,364
856347,355,456,365
856348,356,456,365
856349,355,456,363
856350,355,455,365
856351,356,455,365
856352,356,453,364
856353,355,455,364
856354,355,452,364
856355,355,450,362
856356,354,450,364
856357,352,450,362
856358,353,446,360
856359,351,445,361
856360,351,446,361
856361,352,448,361
856362,351,447,361
856363,353,449,361
856364,355,453,363
856365,356,452,364
856366,355,455,364
856367,356,454,365
856368,355,453,365
856369,355,454,365
856370,356,453,364
856371,356,451,363
856372,354,452,365
856373,354,450,363
856374,353,449,363
856375,353,448,362
856376,353,448,362
856377,352,446,362
856378,352,449,361
856379,353,449,362
856380,353,451,362
856381,356,449,363
856382,355,453,364
856383,356,456,365
856384,356,454,365
856385,356,453,364
856386,355,450,365
856387,355,452,364
856388,357,454,364
856389,358,453,367
856390,356,455,366
856391,358,455,366
856392,356,457,366
856393,357,455,367
856394,357,455,367
856395,357,453,366
856396,355,449,364
856397,353,448,364
856398,354,449,364
856399,354,445,363
856400,352,445,362
856401,352,446,360
856402,351,444,361
856403,351,445,359
856404,349,444,360
856405,350,448,360
856406,352,450,360
856407,353,449,362
856408,353,451,363
856409,353,452,362
856410,355,453,364
856411,353,457,363
856412,355,456,364
856413,357,456,366
856414,358,457,367
856415,358,454,365
856416,356,452,363
856417,355,453,364
856418,356,454,366
856419,357,451,365
856420,356,452,365
856421,356,453,366
856422,355,455,365
856423,356,450,364
856424,354,447,364
856425,354,449,362
856426,355,449,363
856427,352,449,363
856428,352,447,362
856429,351,448,360
856430,350,446,361
856431,350,445,358
856432,349,443,358
856433,349,443,357
856434,349,442,358
856435,348,442,356
856436,349,445,359
856437,350,449,357
856438,349,448,361
856439,350,451,361
856440,351,451,362
856441,354,453,363
856442,355,454,365
856443,356,450,365
856444,355,452,364
856445,355,453,365
856446,356,452,365
856447,355,452,364
856448,355,450,365
856449,353,451,363
856450,352,448,362
856451,353,445,360
856452,350,442,358
856453,350,442,359
856454,349,441,357
856455,347,441,356
856456,348,439,356
856457,347,440,355
856458,347,438,355
856459,345,440,355
856460,347,440,356
856461,348,445,357
856462,349,448,358
856463,351,450,360
856464,353,452,361
856465,354,456,363
856466,356,454,366
856467,357,456,366
856468,358,454,366
856469,357,453,365
856470,356,454,363
856471,356,454,365
856472,356,452,364
856473,354,452,365
856474,354,447,362
856475,353,448,362
856476,349,445,362
856477,350,446,358
856478,350,443,359
856479,348,442,358
856480,349,444,358
856481,349,445,359
856482,349,447,359
856483,351,445,360
856484,352,451,360
856485,353,450,363
856486,353,445,362
856487,354,452,363
856488,352,449,363
856489,353,449,363
856490,355,452,363
856491,353,452,364
856492,354,454,363
856493,353,452,363
856494,353,454,363
856495,354,454,363
856496,354,452,363
856497,354,451,364
856498,355,450,364
856499,354,449,363
856500,355,450,361
856501,353,448,364
856502,354,447,362
856503,352,449,362
856504,351,446,360
856505,352,448,362
856506,352,446,362
856507,353,446,361
856508,351,446,361
856509,350,446,359
856510,350,443,360
856511,350,446,358
856512,349,439,358
856513,347,443,358
856514,349,440,357
856515,348,439,357
856516,347,439,355
856517,348,439,356
856518,346,439,356
856519,345,440,355
856520,345,440,355
856521,346,439,356
856522,347,444,356
856523,348,447,356
856524,349,450,360
856525,352,452,361
856526,353,452,362
856527,355,456,365
856528,356,455,365
856529,355,453,366
856530,358,456,366
856531,356,452,366
856532,356,452,364
856533,355,449,362
856534,353,449,362
856535,353,446,361
856536,351,446,360
856537,352,447,359
856538,351,448,360
856539,353,451,361
856540,353,452,362
856541,353,452,362
856542,353,453,362
856543,355,452,363
856544,355,451,364
856545,354,451,364
856546,354,452,364
856547,356,453,364
856548,354,451,363
856549,353,453,361
856550,353,450,361
856551,353,449,362
856552,352,448,361
856553,352,446,360
856554,350,445,359
856555,351,444,359
856556,350,441,357
856557,349,443,357
856558,348,442,357
856559,348,443,357
856560,349,443,356
856561,348,441,358
856562,348,441,358
856563,348,443,357
856564,348,443,357
856565,348,439,357
856566,349,442,358
856567,347,442,356
856568,348,442,356
856569,346,442,357
856570,348,443,356
856571,347,440,356
856572,346,442,354
856573,346,439,356
856574,345,441,355
856575,347,441,355
856576,346,443,355
856577,348,443,358
856578,348,443,358
856579,349,443,358
856580,348,446,358
856581,351,446,359
856582,351,447,359
856583,351,446,360
856584,352,445,362
856585,354,449,362
856586,352,448,363
856587,353,451,363
856588,353,450,363
856589,354,451,364
856590,354,452,363
856591,354,449,362
856592,353,447,361
856593,353,450,362
856594,352,449,362
856595,353,448,360
856596,350,446,360
856597,350,445,359
856598,349,443,357
856599,349,446,358
856600,350,444,359
856601,351,446,360
856602,351,446,358
856603,351,447,361
856604,350,448,360
856605,351,449,361
856606,352,445,361
856607,353,447,360
856608,351,448,360
856609,352,449,361
856610,352,447,361
856611,352,446,361
856612,352,447,360
856613,350,446,359
856614,349,445,358
856615,348,442,357
856616,348,440,356
856617,347,440,354
856618,347,439,355
856619,345,439,353
856620,345,438,354
856621,345,437,352
856622,344,437,355
856623,344,438,353
856624,344,440,354
856625,346,439,355
856626,348,442,356
856627,347,441,357
856628,350,443,358
856629,350,444,359
856630,351,445,357
856631,350,448,357
856632,349,445,358
856633,348,447,358
856634,348,444,358
856635,349,444,358
856636,350,444,358
856637,350,445,357
856638,350,447,360
856639,351,450,361
856640,352,451,363
856641,353,455,362
856642,354,453,366
856643,356,456,365
856644,357,454,367
856645,356,452,366
856646,355,454,364
856647,357,447,364
856648,354,451,366
856649,354,448,362
856650,353,451,362
856651,354,446,362
856652,353,447,362
856653,351,446,361
856654,349,445,358
856655,349,441,358
856656,349,446,358
856657,349,446,358
856658,349,444,358
856659,349,443,359
856660,349,445,357
856661,350,446,359
856662,350,445,359
856663,350,445,359
856664,351,444,358
856665,350,445,358
856666,350,446,360
856667,351,446,359
856668,350,446,360
856669,349,444,360
856670,350,446,360
856671,351,446,359
856672,349,446,358
856673,349,444,359
856674,349,444,359
856675,349,442,357
856676,349,446,359
856677,350,443,357
856678,349,445,357
856679,350,450,360
856680,352,447,359
856681,351,452,362
856682,356,452,363
856683,355,451,365
856684,356,452,365
856685,357,451,365
856686,355,454,365
856687,354,452,364
856688,356,452,364
856689,355,453,365
856690,354,450,365
856691,355,452,364
856692,356,449,362
856693,356,449,362
856694,353,449,361
856695,352,448,361
856696,352,446,359
856697,351,444,358
856698,350,446,358
856699,349,444,358
856700,348,443,358
856701,350,445,358
856702,350,445,358
856703,349,443,359
856704,349,442,359
856705,352,447,362
856706,353,451,362
856707,353,453,363
856708,354,453,364
856709,354,454,363
856710,355,453,362
856711,355,453,364
856712,355,452,363
856713,354,452,363
856714,353,450,363
856715,353,451,362
856716,354,449,364
856717,352,449,361
856718,352,448,361
856719,350,448,361
856720,353,450,361
856721,354,450,364
856722,356,455,364
856723,356,454,365
856724,357,457,367
856725,358,457,367
856726,358,454,365
856727,356,455,365
856728,355,454,364
856729,356,452,364
856730,355,453,365
856731,356,451,366
856732,356,452,364
856733,354,448,364
856734,356,453,364
856735,355,453,364
856736,354,451,363
856737,352,448,361
856738,353,449,362
856739,352,444,362
856740,350,449,360
856741,351,446,361
856742,351,447,361
856743,352,448,361
856744,354,451,362
856745,354,453,364
856746,356,457,365
856747,356,459,366
856748,357,457,367
856749,359,461,367
856750,359,459,367
856751,358,457,366
856752,357,457,367
856753,357,455,366
856754,355,455,366
856755,357,453,365
856756,354,454,364
856757,356,448,364
856758,354,451,364
856759,355,449,364
856760,354,447,363
856761,352,449,362
856762,353,448,362
856763,353,450,363
856764,354,452,364
856765,355,453,364
856766,354,455,364
856767,357,455,366
856768,356,456,365
856769,355,454,365
856770,356,454,365
856771,355,452,364
856772,356,449,363
856773,354,449,362
856774,353,448,362
856775,352,448,361
856776,351,446,361
856777,350,443,360
856778,351,444,359
856779,350,445,360
856780,352,448,359
856781,352,446,360
856782,352,450,362
856783,355,451,363
856784,354,454,362
856785,355,455,367
856786,356,455,365
856787,356,456,365
856788,357,456,366
856789,355,454,366
856790,356,455,365
856791,357,453,366
856792,358,454,365
856793,358,454,366
856794,357,456,367
856795,357,461,367
856796,360,459,367
856797,358,460,368
856798,357,457,367
856799,361,457,369
856800,360,457,368
856801,358,457,367
856802,359,456,368
856803,357,454,367
856804,358,452,367
856805,358,456,368
856806,356,457,365
856807,358,456,367
856808,359,457,367
856809,358,458,369
856810,358,460,368
856811,359,458,367
856812,358,457,367
856813,358,458,366
856814,356,458,366
856815,358,457,365
856816,357,455,365
856817,358,455,365
856818,357,454,365
856819,356,454,365
856820,357,453,365
856821,355,459,365
856822,356,453,364
856823,354,451,365
856824,353,452,364
856825,354,452,363
856826,356,452,363
856827,356,452,364
856828,354,453,364
856829,355,455,364
856830,354,454,364
856831,354,453,363
856832,353,448,363
856833,353,450,360
856834,351,446,361
856835,350,447,360
856836,349,445,359
856837,349,444,357
856838,349,442,357
856839,348,441,358
856840,349,443,357
856841,349,442,358
856842,348,442,358
856843,349,440,357
856844,347,442,356
856845,350,443,357
856846,350,440,357
856847,349,443,357
856848,349,444,358
856849,351,443,358
856850,349,445,358
856851,350,447,359
856852,350,443,358
856853,351,445,359
856854,350,446,360
856855,348,447,359
856856,350,446,359
856857,350,445,360
856858,350,448,359
856859,348,445,361
856860,349,445,358
856861,350,446,360
856862,349,446,360
856863,351,445,361
856864,352,447,360
856865,350,445,360
856866,352,447,360
856867,351,447,361
856868,352,446,360
856869,351,447,360
856870,351,446,361
856871,350,447,359
856872,351,445,361
856873,350,449,361
856874,352,449,360
856875,350,453,362
856876,354,453,362
856877,353,452,363
856878,355,452,365
856879,355,454,364
856880,355,450,365
856881,354,449,364
856882,354,450,361
856883,354,447,361
856884,351,446,362
856885,353,446,360
856886,351,446,360
856887,352,448,360
856888,351,447,360
856889,351,448,360
856890,350,448,360
856891,350,443,360
856892,351,445,359
856893,351,446,358
856894,349,444,358
856895,348,443,357
856896,347,441,356
856897,348,442,357
856898,348,442,356
856899,347,441,357
856900,347,441,355
856901,348,443,357
856902,349,444,358
856903,350,444,358
856904,349,445,358
856905,350,448,359
856906,350,446,359
856907,351,447,360
856908,352,448,360
856909,352,446,361
856910,350,446,359
856911,350,447,359
856912,351,446,358
856913,349,445,359
856914,350,445,358
856915,349,444,359
856916,347,443,357
856917,348,442,357
856918,348,443,358
856919,348,441,357
856920,348,441,357
856921,348,442,358
856922,349,445,359
856923,348,441,358
856924,351,444,359
856925,350,448,359
856926,351,449,360
856927,352,450,360
856928,352,448,361
856929,352,451,360
856930,351,447,360
856931,352,450,361
856932,352,445,362
856933,351,448,362
856934,351,447,360
856935,351,446,358
856936,350,443,359
856937,350,444,358
856938,349,446,359
856939,352,443,359
856940,350,446,359
856941,350,447,359
856942,351,448,360
856943,351,448,360
856944,351,450,360
856945,354,448,362
856946,353,451,361
856947,354,448,363
856948,353,451,364
856949,355,454,363
856950,355,455,363
856951,355,455,365
856952,355,456,365
856953,356,453,365
856954,355,457,366
856955,357,456,367
856956,357,456,366
856957,357,456,366
856958,357,457,365
856959,357,456,365
856960,357,456,366
856961,355,456,365
856962,358,454,366
856963,359,455,366
856964,358,458,367
856965,359,459,369
856966,358,457,370
856967,360,460,370
856968,360,460,370
856969,360,461,369
856970,360,459,370
856971,361,462,370
856972,361,460,369
856973,361,458,369
856974,360,456,368
856975,359,455,367
856976,357,456,366
856977,355,454,364
856978,356,449,364
856979,356,451,364
856980,354,451,363
856981,354,451,364
856982,355,451,364
856983,354,451,365
856984,354,449,364
856985,355,455,365
856986,356,453,365
856987,358,454,366
856988,358,457,366
856989,356,454,366
856990,355,454,367
856991,355,453,365
856992,356,452,365
856993,355,452,365
856994,354,453,364
856995,354,452,363
856996,354,452,363
856997,354,452,363
856998,353,449,364
856999,354,451,363
857000,353,453,364
857001,354,451,363
857002,355,449,365
857003,355,454,364
857004,355,453,362
857005,356,454,364
857006,357,455,365
857007,357,453,365
857008,358,452,366
857009,358,455,366
857010,356,459,365
857011,357,456,367
857012,357,456,366
857013,356,457,367
857014,357,457,365
857015,358,454,366
857016,357,457,365
857017,357,457,366
857018,356,456,365
857019,356,455,365
857020,357,456,366
857021,356,456,366
857022,358,456,368
857023,358,455,367
857024,358,458,367
857025,358,457,369
857026,359,459,370
857027,360,458,370
857028,361,459,369
857029,361,463,369
857030,361,461,370
857031,362,459,370
857032,361,462,370
857033,360,461,370
857034,359,461,370
857035,361,461,369
857036,361,465,371
857037,364,465,372
857038,363,467,373
857039,362,466,372
857040,364,464,374
857041,364,464,372
857042,364,466,374
857043,365,463,376
857044,365,464,374
857045,364,464,373
857046,363,464,374
857047,363,464,374
857048,364,463,373
857049,363,464,373
857050,363,465,373
857051,364,464,372
857052,363,464,373
857053,363,465,372
857054,362,464,372
857055,361,463,371
857056,362,464,372
857057,362,458,371
857058,361,460,370
857059,362,459,370
857060,361,460,371
857061,360,461,370
857062,362,462,370
857063,360,460,371
857064,361,460,371
857065,362,462,371
857066,360,462,371
857067,362,463,371
857068,363,464,372
857069,363,464,372
857070,363,464,373
857071,362,465,372
857072,363,466,372
857073,362,465,372
857074,363,461,371
857075,362,464,373
857076,363,462,372
857077,360,461,369
857078,361,462,370
857079,361,461,369
857080,360,461,371
857081,362,462,371
857082,362,463,371
857083,361,464,372
857084,364,463,374
857085,364,466,374
857086,364,467,374
857087,366,466,374
857088,365,463,375
857089,366,467,374
857090,365,464,375
857091,364,469,375
857092,362,467,374
857093,364,465,373
857094,364,467,373
857095,365,466,375
857096,364,465,373
857097,365,468,375
857098,365,468,374
857099,364,463,374
857100,365,467,375
857101,364,464,375
857102,366,467,375
857103,364,465,374
857104,364,465,373
857105,365,465,376
857106,363,465,374
857107,365,465,373
857108,366,470,375
857109,363,468,375
857110,366,466,375
857111,365,466,375
857112,365,467,373
857113,366,468,373
857114,362,467,373
857115,363,467,373
857116,363,465,372
857117,364,465,373
857118,363,464,372
857119,362,462,374
857120,362,464,373
857121,364,466,374
857122,363,467,375
857123,366,466,374
857124,364,469,375
857125,367,470,376
857126,368,470,377
857127,367,471,377
857128,367,471,377
857129,368,472,376
857130,368,469,376
857131,368,470,375
857132,366,468,376
857133,366,468,376
857134,365,466,375
857135,366,465,374
857136,363,465,374
857137,364,464,374
857138,362,463,372
857139,365,465,372
857140,363,464,370
857141,363,464,374
857142,364,464,373
857143,363,463,373
857144,364,462,373
857145,363,466,373
857146,364,465,374
857147,365,468,374
857148,365,466,373
857149,365,470,375
857150,367,469,375
857151,366,465,376
857152,365,467,374
857153,366,467,373
857154,364,466,375
857155,364,465,373
857156,364,463,373
857157,363,464,372
857158,364,463,373
857159,362,463,373
857160,363,464,373
857161,363,463,372
857162,362,463,374
857163,364,461,374
857164,364,468,374
857165,363,465,374
857166,364,468,375
857167,364,467,373
857168,364,468,373
857169,365,466,374
857170,364,466,373
857171,364,464,374
857172,364,465,374
857173,363,465,374
857174,365,464,373
857175,363,464,372
857176,364,463,372
857177,362,461,372
857178,363,463,371
857179,362,462,370
857180,362,465,372
857181,363,463,372
857182,363,464,373
857183,364,464,375
857184,364,465,372
857185,363,463,375
857186,365,467,375
857187,366,467,375
857188,366,468,377
857189,367,464,374
857190,365,467,374
857191,364,467,374
857192,366,468,375
857193,365,469,375
857194,364,466,375
857195,365,467,375
857196,365,463,375
857197,364,465,373
857198,364,461,373
857199,363,463,373
857200,364,462,372
857201,363,464,373
857202,364,463,373
857203,363,463,373
857204,363,461,374
857205,364,467,375
857206,365,465,374
857207,364,465,374
857208,365,466,375
857209,364,467,376
857210,362,466,374
857211,365,467,374
857212,363,465,374
857213,363,465,374
857214,364,464,372
857215,363,464,373
857216,363,463,372
857217,364,462,372
857218,364,464,372
857219,361,464,372
857220,362,463,370
857221,362,463,371
857222,362,463,372
857223,362,464,372
857224,364,464,371
857225,364,462,373
857226,363,461,372
857227,363,461,373
857228,364,466,374
857229,363,465,373
857230,364,465,374
857231,364,465,372
857232,361,464,372
857233,364,465,373
857234,363,463,372
857235,363,465,373
857236,362,464,371
857237,362,461,372
857238,363,461,371
857239,362,462,370
857240,362,460,370
857241,361,461,370
857242,361,461,371
857243,362,462,371
857244,363,460,371
857245,363,463,373
857246,363,463,373
857247,362,466,373
857248,364,461,373
857249,362,465,372
857250,364,465,372
857251,364,466,373
857252,363,463,373
857253,363,463,372
857254,362,463,369
857255,362,462,371
857256,362,463,371
857257,360,462,372
857258,362,459,371
857259,362,462,370
857260,361,462,369
857261,359,464,371
857262,361,460,371
857263,361,462,373
857264,363,463,372
857265,362,462,372
857266,361,463,373
857267,363,464,374
857268,361,465,371
857269,364,466,374
857270,363,466,372
857271,364,464,371
857272,363,464,371
857273,363,465,374
857274,363,463,372
857275,361,463,370
857276,361,463,372
857277,360,463,372
857278,362,462,371
857279,362,462,372
857280,362,461,371
857281,360,459,372
857282,362,458,372
857283,361,462,372
857284,362,465,374
857285,363,460,374
857286,364,463,373
857287,363,465,372
857288,364,464,374
857289,365,467,373
857290,364,466,374
857291,364,469,374
857292,365,469,374
857293,366,471,376
857294,365,467,375
857295,365,471,374
857296,367,468,376
857297,365,469,375
857298,364,466,375
857299,364,467,374
857300,364,464,373
857301,361,462,373
857302,363,462,373
857303,363,462,374
857304,365,463,373
857305,364,463,373
857306,363,463,371
857307,364,464,374
857308,363,464,373
857309,365,465,373
857310,363,462,372
857311,362,464,373
857312,364,466,373
857313,364,462,372
857314,364,462,372
857315,364,460,371
857316,362,459,371
857317,361,460,370
857318,360,459,371
857319,361,461,370
857320,361,459,370
857321,361,460,371
857322,361,461,371
857323,361,461,370
857324,360,460,372
857325,362,460,371
857326,363,461,371
857327,363,463,371
857328,363,463,371
857329,361,462,371
857330,361,462,371
857331,361,462,373
857332,362,462,370
857333,361,462,369
857334,361,462,370
857335,361,461,370
857336,358,457,369
857337,361,460,368
857338,360,460,367
857339,358,459,367
857340,360,459,368
857341,361,460,368
857342,360,459,370
857343,361,459,368
857344,361,459,369
1742212098735,NEW REP,,
857345,361,460,371
857346,361,461,371
857347,361,460,372
857348,362,463,372
857349,363,463,371
857350,361,464,371
857351,361,462,371
857352,362,463,371
857353,361,462,371
857354,362,459,369
857355,360,457,370
857356,360,459,370
857357,359,458,369
857358,359,458,367
857359,359,457,369
857360,359,458,369
857361,360,456,368
857362,359,460,369
857363,360,460,370
857364,361,457,369
857365,362,460,370
857366,361,461,371
857367,362,460,370
857368,362,463,371
857369,360,463,371
857370,361,463,371
857371,363,459,371
857372,362,466,370
857373,361,461,369
857374,361,459,371
857375,360,458,369
857376,360,461,368
857377,360,460,369
857378,361,459,370
857379,359,460,370
857380,360,463,371
857381,361,463,370
857382,363,462,372
857383,361,465,373
857384,364,466,374
857385,365,468,374
857386,365,468,375
857387,365,468,376
857388,365,469,376
857389,365,469,375
857390,365,467,374
857391,365,466,374
857392,363,464,373
857393,363,462,373
857394,363,462,372
857395,362,463,371
857396,363,460,371
857397,362,461,369
857398,361,462,371
857399,361,461,372
857400,362,459,370
857401,361,461,370
857402,359,459,368
857403,358,458,369
857404,360,459,370
857405,359,458,370
857406,360,459,371
857407,361,462,372
857408,361,464,370
857409,362,464,373
857410,362,466,373
857411,363,466,373
857412,364,467,375
857413,364,465,374
857414,363,465,372
857415,362,463,372
857416,362,462,372
857417,363,461,371
857418,362,460,372
857419,360,459,370
857420,360,460,370
857421,362,462,371
857422,361,463,371
857423,361,463,372
857424,363,468,374
857425,366,466,374
857426,367,470,376
857427,367,472,377
857428,368,473,379
857429,367,475,379
857430,369,473,379
857431,368,474,379
857432,367,470,377
857433,367,466,377
857434,363,465,374
857435,365,462,373
857436,362,461,370
857437,360,461,370
857438,360,458,370
857439,361,458,368
857440,359,457,370
857441,360,455,368
857442,359,457,367
857443,358,456,367
857444,358,456,367
857445,360,456,368
857446,358,459,369
857447,359,457,368
857448,359,457,367
857449,359,457,369
857450,359,458,367
857451,358,457,367
857452,357,457,365
857453,357,456,368
857454,357,455,366
857455,356,454,366
857456,356,453,365
857457,355,451,365
857458,355,454,364
857459,355,452,365
857460,355,454,365
857461,355,452,366
857462,354,454,365
857463,356,452,366
857464,357,452,366
857465,355,454,368
857466,356,456,367
857467,357,457,366
857468,358,458,368
857469,357,458,367
857470,359,460,370
857471,360,461,369
857472,359,462,369
857473,359,464,369
857474,361,464,371
857475,361,463,370
857476,361,461,370
857477,361,460,369
857478,360,460,369
857479,360,458,369
857480,358,459,368
857481,359,459,369
857482,360,462,369
857483,361,459,371
857484,363,465,371
857485,361,466,373
857486,364,470,373
857487,365,469,376
857488,366,470,376
857489,366,469,377
857490,366,467,376
857491,367,467,376
857492,366,465,375
857493,364,462,374
857494,362,463,371
857495,361,458,371
857496,360,457,370
857497,359,457,368
857498,359,458,368
857499,358,457,367
857500,358,457,367
857501,358,456,368
857502,358,454,368
857503,356,455,364
857504,358,454,366
857505,357,455,365
857506,357,457,367
857507,358,455,367
857508,359,455,369
857509,358,457,367
857510,357,457,367
857511,356,456,367
857512,356,454,364
857513,356,455,364
857514,356,453,367
857515,355,451,365
857516,355,450,364
857517,354,450,363
857518,354,449,362
857519,353,451,362
857520,353,445,363
857521,355,453,364
857522,354,458,365
857523,358,460,368
857524,361,463,370
857525,363,466,372
857526,363,469,374
857527,365,470,376
857528,366,469,376
857529,365,469,376
857530,366,466,376
857531,365,467,376
857532,365,467,374
857533,364,466,374
857534,362,464,374
857535,363,461,372
857536,362,457,372
857537,363,459,371
857538,361,457,368
857539,360,456,366
857540,358,454,368
857541,359,453,367
857542,357,453,368
857543,357,452,366
857544,356,455,367
857545,358,452,367
857546,357,456,368
857547,358,460,368
857548,358,461,370
857549,361,463,371
857550,362,464,372
857551,363,464,371
857552,363,466,372
857553,364,465,372
857554,363,462,372
857555,364,461,372
857556,363,462,371
857557,363,465,371
857558,363,463,371
857559,364,463,373
857560,362,465,373
857561,363,464,373
857562,363,463,372
857563,364,465,373
857564,364,465,373
857565,364,463,374
857566,364,464,374
857567,366,465,374
857568,364,465,373
857569,364,462,373
857570,364,465,373
857571,365,465,373
857572,365,463,374
857573,364,464,373
857574,365,465,374
857575,365,462,373
857576,363,465,372
857577,363,459,373
857578,362,457,369
857579,360,455,369
857580,359,453,368
857581,357,452,367
857582,358,456,367
857583,358,455,367
857584,359,456,368
857585,360,462,369
857586,360,464,370
857587,362,463,371
857588,364,471,374
857589,364,466,373
857590,363,465,373
857591,364,463,373
857592,364,462,371
857593,361,460,371
857594,360,459,369
857595,359,458,367
857596,359,456,367
857597,358,453,367
857598,358,456,366
857599,358,455,367
857600,356,453,367
857601,358,455,366
857602,357,454,366
857603,358,453,367
857604,355,454,366
857605,358,452,365
857606,357,454,365
857607,355,454,366
857608,357,456,365
857609,357,456,367
857610,357,458,366
857611,357,459,368
857612,355,460,367
857613,360,461,370
857614,360,465,371
857615,360,465,370
857616,361,465,372
857617,363,465,374
857618,363,465,371
857619,362,464,373
857620,363,462,371
857621,363,459,373
857622,363,463,372
857623,362,463,373
857624,365,465,373
857625,367,469,375
857626,365,472,376
857627,366,473,378
857628,369,475,379
857629,368,474,379
857630,368,471,378
857631,368,472,377
857632,368,467,377
857633,366,467,376
857634,365,462,374
857635,365,463,374
857636,364,463,373
857637,362,462,373
857638,362,457,371
857639,361,458,371
857640,361,457,370
857641,359,459,370
857642,361,460,369
857643,359,458,370
857644,361,458,370
857645,361,458,370
857646,362,462,371
857647,362,465,372
857648,361,464,371
857649,362,461,372
857650,361,462,371
857651,360,460,371
857652,361,461,370
857653,362,461,371
857654,362,458,370
857655,359,460,370
857656,360,460,369
857657,358,454,368
857658,358,453,366
857659,355,451,365
857660,355,451,364
857661,355,451,365
857662,355,452,366
857663,357,455,366
857664,356,459,368
857665,358,460,368
857666,360,465,370
857667,362,465,370
857668,365,468,375
857669,366,469,375
857670,365,470,376
857671,366,471,376
857672,365,468,376
857673,365,467,375
857674,364,461,374
857675,363,459,371
857676,361,462,370
857677,360,457,367
857678,359,458,368
857679,360,457,368
857680,360,459,369
857681,361,458,368
857682,360,456,368
857683,358,458,369
857684,359,457,368
857685,359,455,369
857686,359,457,370
857687,360,458,368
857688,358,457,368
857689,358,458,368
857690,358,454,366
857691,358,456,367
857692,358,452,367
857693,356,452,365
857694,355,451,364
857695,353,452,364
857696,355,454,364
857697,357,455,364
857698,356,456,365
857699,356,457,366
857700,358,455,365
857701,357,458,366
857702,354,458,368
857703,358,456,366
857704,358,454,366
857705,357,454,366
857706,356,453,366
857707,356,454,367
857708,357,455,366
857709,356,456,366
857710,356,457,365
857711,356,454,366
857712,355,455,366
857713,354,451,364
857714,354,449,362
857715,354,447,360
857716,351,446,360
857717,349,443,358
857718,349,443,358
857719,349,445,358
857720,348,445,358
857721,350,448,359
857722,350,448,360
857723,349,449,361
857724,351,450,363
857725,354,450,362
857726,354,452,364
857727,354,451,364
857728,355,451,362
857729,354,448,363
857730,353,449,362
857731,354,450,363
857732,354,449,363
857733,355,452,363
857734,355,456,364
857735,356,456,366
857736,356,455,365
857737,356,452,366
857738,356,454,365
857739,355,452,365
857740,355,448,364
857741,354,449,364
857742,353,449,365
857743,354,452,363
857744,355,452,365
857745,355,455,366
857746,356,454,366
857747,357,458,367
857748,359,460,368
857749,357,454,367
857750,356,454,367
857751,357,453,366
857752,356,451,365
857753,354,448,364
857754,355,448,363
857755,354,449,362
857756,353,448,362
857757,354,450,362
857758,354,451,363
857759,355,452,362
857760,354,452,363
857761,355,454,364
857762,355,455,364
857763,357,456,366
857764,358,460,368
857765,358,456,368
857766,358,459,368
857767,360,459,369
857768,359,459,368
857769,360,460,369
857770,361,460,370
857771,360,463,371
857772,362,465,372
857773,362,467,374
857774,364,467,374
857775,364,468,375
857776,367,472,375
857777,367,467,376
857778,366,469,376
857779,366,467,375
857780,366,466,375
857781,365,467,374
857782,364,461,374
857783,364,464,374
857784,363,464,374
857785,366,465,373
857786,366,463,375
857787,365,466,373
857788,364,466,374
857789,364,462,374
857790,364,464,373
857791,363,462,373
857792,362,458,371
857793,360,459,371
857794,359,456,368
857795,357,453,367
857796,357,453,365
857797,356,456,366
857798,356,458,367
857799,358,459,367
857800,359,464,371
857801,363,468,371
857802,364,469,374
857803,364,470,376
857804,367,472,376
857805,366,472,378
857806,368,470,378
857807,369,472,379
857808,368,468,378
857809,367,467,377
857810,366,467,376
857811,366,465,375
857812,364,465,374
857813,364,464,375
857814,363,465,373
857815,364,463,373
857816,362,461,371
857817,362,461,371
857818,360,462,371
857819,363,460,369
857820,360,459,369
857821,360,460,370
857822,359,459,370
857823,360,459,369
857824,361,458,371
857825,362,459,370
857826,360,460,371
857827,361,461,371
857828,362,462,372
857829,362,465,372
857830,364,465,372
857831,363,463,372
857832,362,463,371
857833,361,461,369
857834,362,460,370
857835,361,461,369
857836,360,461,370
857837,360,466,372
857838,363,468,373
857839,367,471,376
857840,367,475,377
857841,369,477,379
857842,370,475,379
857843,370,474,380
857844,371,477,382
857845,370,476,381
857846,370,472,381
857847,370,471,379
857848,369,471,380
857849,369,469,378
857850,368,468,376
857851,367,467,377
857852,367,468,376
857853,365,465,373
857854,365,470,376
857855,365,470,376
857856,366,471,376
857857,366,472,373
857858,367,468,376
857859,366,469,377
857860,368,469,378
857861,367,473,378
857862,370,475,380
857863,371,477,383
857864,372,479,383
857865,373,480,384
857866,372,477,382
857867,371,475,383
857868,371,474,380
857869,368,467,379
857870,367,467,377
857871,367,463,377
857872,365,466,375
857873,365,465,374
857874,366,465,373
857875,364,465,373
857876,363,463,372
857877,361,463,372
857878,362,460,371
857879,364,465,372
857880,363,465,373
857881,363,467,372
857882,364,467,375
857883,362,470,375
857884,368,473,377
857885,368,476,380
857886,372,479,382
857887,372,484,385
857888,375,484,384
857889,376,484,386
857890,376,480,386
857891,375,474,384
857892,372,474,383
857893,369,469,379
857894,366,469,378
857895,365,468,376
857896,365,464,376
857897,364,463,374
857898,363,465,372
857899,363,462,371
857900,363,464,372
857901,364,464,372
857902,363,464,372
857903,361,463,371
857904,364,464,371
857905,364,470,375
857906,364,463,373
857907,365,469,375
857908,367,469,376
857909,368,470,378
857910,368,474,378
857911,369,473,379
857912,369,476,378
857913,371,476,380
857914,371,479,382
857915,371,481,379
857916,370,474,380
857917,369,472,379
857918,369,469,378
857919,367,463,375
857920,366,457,376
857921,366,462,373
857922,363,460,373
857923,365,464,374
857924,363,467,374
857925,365,467,374
857926,365,470,376
857927,368,470,376
857928,368,469,377
857929,369,473,378
857930,369,473,378
857931,368,472,378
857932,369,469,378
857933,366,467,376
857934,366,467,374
857935,364,463,373
857936,363,463,372
857937,363,461,372
857938,363,460,371
857939,361,463,373
857940,363,463,371
857941,363,466,372
857942,365,465,374
857943,365,465,375
857944,365,466,374
857945,365,468,376
857946,366,469,376
857947,366,471,377
857948,368,474,378
857949,368,473,378
857950,369,475,379
857951,369,476,379
857952,370,476,380
857953,369,474,379
857954,367,471,378
857955,367,470,377
857956,365,468,378
857957,365,462,374
857958,363,460,373
857959,361,458,371
857960,362,458,370
857961,360,455,369
857962,361,455,369
857963,360,457,368
857964,360,461,369
857965,359,464,370
857966,360,463,372
857967,363,463,373
857968,364,465,374
857969,364,469,374
857970,367,468,375
857971,366,467,375
857972,365,465,375
857973,364,468,375
857974,364,468,374
857975,364,464,374
857976,363,466,374
857977,365,467,374
857978,365,468,374
857979,365,466,374
857980,364,466,375
857981,365,468,375
857982,366,465,374
857983,366,467,375
857984,365,468,376
857985,364,468,376
857986,366,469,375
857987,367,470,376
857988,368,474,379
857989,369,477,378
857990,370,478,380
857991,371,474,382
857992,371,478,381
857993,370,474,379
857994,368,469,377
857995,367,465,375
857996,365,463,373
857997,364,462,373
857998,362,459,371
857999,360,462,370
858000,361,462,372
858001,361,462,370
858002,360,463,369
858003,362,463,371
858004,363,464,372
858005,364,463,373
858006,363,466,374
858007,365,468,375
858008,364,468,375
858011,362,469,371
858012,365,472,373
858018,358,474,369
858019,364,472,374
858020,366,473,377
858021,367,473,377
858021,367,470,377
858022,367,471,379
858023,370,472,379
858024,369,470,379
858025,369,471,379
858026,369,473,380
858027,372,473,380
858028,371,473,381
858029,371,477,381
858029,371,475,382
858030,371,478,382
858031,372,480,384
858032,374,481,383
858033,376,480,384
858034,375,481,384
858035,374,479,382
858036,374,478,383
858037,373,478,383
858037,371,475,382
858038,368,473,381
858039,371,471,379
858040,370,471,377
858041,368,476,378
858042,370,476,379
858043,371,478,380
858044,372,479,382
858045,373,480,385
858045,375,485,386
858046,377,489,388
858047,379,488,388
858048,380,489,392
858049,378,486,387
858050,379,481,387
858051,375,478,386
858052,374,476,386
858053,372,473,382
858054,370,471,380
858054,368,466,377
858055,365,463,376
858056,365,462,373
858057,364,458,372
858058,361,459,370
858059,360,457,371
858060,362,459,369
858061,361,458,370
858062,359,459,370
858063,359,460,369
858063,360,462,369
858064,362,465,372
858065,363,466,373
858066,364,470,374
858067,368,472,377
858068,370,479,381
858069,372,481,382
858070,371,482,384
858071,375,485,386
858071,376,484,386
858072,375,480,387
858073,375,477,384
858074,373,473,383
858075,371,470,379
858076,369,470,378
858077,367,467,377
858078,367,465,375
858079,365,463,375
858080,365,464,375
858081,364,460,374
858082,363,459,371
858083,362,462,372
858084,363,462,374
858085,364,466,374
858086,364,467,374
858087,366,470,374
858088,367,471,377
858089,369,474,378
858090,371,480,381
858091,373,484,383
858092,376,484,386
858093,378,490,389
858094,377,489,388
858095,379,486,389
858096,377,481,387
858097,376,476,386
858098,373,474,383
858099,371,472,381
858100,369,468,380
858101,370,468,379
858102,368,469,376
858103,367,466,378
858104,365,466,377
858105,367,464,376
858106,365,463,374
858107,364,464,373
858108,363,457,371
858109,362,459,372
858110,359,460,372
858111,361,460,371
858112,361,462,368
858113,362,463,369
858114,361,461,371
858115,362,465,371
858116,361,467,371
858117,364,468,373
858118,366,469,375
858119,366,469,376
858120,367,470,376
858121,367,473,378
858122,369,477,380
858123,371,479,381
858124,372,481,382
858125,375,485,385
858126,377,489,388
858127,381,494,391
858128,383,498,393
858129,384,499,395
858130,384,495,395
858131,382,491,392
858132,381,487,393
858133,379,483,389
858134,376,482,386
858135,377,479,386
858136,376,483,385
858137,375,483,386
858138,375,478,385
858139,374,478,385
858140,375,479,385
858141,372,477,383
858142,371,471,382
858143,369,471,379
858144,369,468,377
858145,367,465,377
858146,367,465,375
858147,367,467,376
858148,366,466,375
858149,366,467,375
858150,364,465,374
858151,365,466,375
858152,366,469,374
858153,366,470,377
858154,367,469,377
858155,365,470,374
858156,366,469,376
858157,366,467,375
858158,365,469,375
858159,366,468,375
858160,365,467,375
858161,366,467,376
858162,368,471,378
858163,367,475,378
858164,369,475,379
858165,369,474,380
858166,369,473,380
858167,368,469,379
858168,366,466,377
858169,367,466,375
858170,366,467,375
858171,368,469,375
858172,365,465,375
858173,365,465,374
858174,363,459,372
858175,362,456,371
858176,356,451,367
858177,355,453,364
858178,356,455,365
858179,355,454,366
858180,358,459,368
858181,359,460,367
858182,360,461,370
858183,361,462,370
858184,361,457,371
858185,360,458,370
858186,359,457,369
858187,360,459,369
858188,360,462,371
858189,363,465,371
858190,366,478,377
858191,370,485,381
858192,375,487,385
858193,376,489,387
858194,377,490,390
858195,379,490,388
858196,378,485,388
858197,376,479,385
858198,373,473,382
858199,370,464,380
858200,366,464,375
858201,364,461,375
858202,363,456,372
858203,360,455,369
858204,358,454,369
858205,358,456,368
858206,360,457,369
858207,360,465,371
858208,363,471,373
858209,365,469,375
858210,366,470,377
858211,367,466,375
858212,364,462,374
858213,361,455,370
858214,357,449,367
858215,353,443,365
858216,352,443,361
858217,350,441,357
858218,349,441,357
858219,347,441,358
858220,349,442,357
858221,348,442,357
858222,349,447,359
858223,352,450,360
858224,354,455,364
858225,356,460,366
858226,359,465,370
858227,362,471,373
858228,365,471,375
858229,366,469,376
858230,365,467,376
858231,365,461,373
858232,362,458,373
858233,359,450,368
858234,357,446,363
858235,354,447,362
858236,351,444,360
858237,350,442,360
858238,350,439,359
858239,347,439,356
858240,347,438,355
858241,345,438,355
858242,346,439,354
858243,348,440,355
858244,347,439,355
858245,347,440,355
858246,347,440,358
858247,348,441,356
858248,347,443,354
858249,349,443,357
858250,349,444,356
858251,349,445,357
858252,348,445,358
858253,348,443,356
858254,347,444,358
858255,349,446,356
858256,348,445,357
858257,348,445,358
858258,348,447,359
858259,348,447,358
858260,349,445,358
858261,350,444,358
858262,350,447,359
858263,352,451,360
858264,353,453,362
858265,356,455,364
858266,356,455,366
858267,359,458,367
858268,357,460,367
858269,358,454,367
858270,356,451,366
858271,354,448,364
858272,353,443,362
858273,352,443,359
858274,350,443,359
858275,348,442,359
858276,349,443,357
858277,347,442,357
858278,347,444,357
858279,349,446,358
858280,349,447,358
858281,352,453,361
858282,354,452,362
858283,356,457,366
858284,358,459,367
858285,358,460,367
858286,358,459,368
858287,356,455,368
858288,357,453,366
858289,356,452,366
858290,356,450,365
858291,355,451,363
858292,355,451,363
858293,354,450,363
858294,353,450,362
858295,352,448,362
858296,352,445,359
858297,350,446,358
858298,350,443,358
858299,350,444,359
858300,349,447,357
858301,350,450,359
858302,352,454,362
858303,353,452,364
858304,356,458,365
858305,355,454,367
858306,357,453,364
858307,356,451,366
858308,355,447,362
858309,353,445,362
858310,353,447,361
858311,351,447,361
858312,350,445,361
858313,351,447,358
858314,351,447,360
858315,349,449,359
858316,352,455,360
858317,354,453,362
858318,354,456,363
858319,355,457,364
858320,356,456,365
858321,356,457,366
858322,359,459,367
858323,360,457,368
858324,360,462,370
858325,362,464,370
858326,362,465,372
858327,364,469,375
858328,365,471,374
858329,366,467,375
858330,365,467,375
858331,366,465,374
858332,363,466,373
858333,362,463,372
858334,362,460,371
858335,358,454,369
858336,357,453,367
858337,357,448,365
858338,356,447,364
858339,355,448,362
858340,353,444,361
858341,352,444,360
858342,350,444,360
858343,350,443,358
858344,350,443,360
858345,350,442,359
858346,350,445,360
858347,350,446,359
858348,352,445,360
858349,351,446,359
858350,353,450,362
858351,352,453,362
858352,355,447,364
858353,354,456,364
858354,356,456,365
858355,357,458,365
858356,357,454,366
858357,355,454,365
858358,356,452,365
858359,356,457,365
858360,355,455,365
858361,358,457,367
858362,357,456,367
858363,357,455,368
858364,357,455,367
858365,357,456,366
858366,358,453,367
858367,356,452,365
858368,356,452,364
858369,356,451,364
858370,356,450,363
858371,355,452,365
858372,355,450,364
858373,354,452,364
858374,354,450,364
858375,355,451,362
858376,353,450,364
858377,353,450,362
858378,354,451,361
858379,353,452,364
858380,355,453,363
858381,355,455,365
858382,355,453,364
858383,355,454,364
858384,355,452,365
858385,354,453,364
858386,357,451,365
858387,356,452,364
858388,356,455,364
858389,357,459,368
858390,359,462,367
858391,359,461,370
858392,359,463,370
858393,361,463,372
858394,360,463,370
858395,362,463,371
858396,361,460,369
858397,361,459,369
858398,360,458,369
858399,359,462,368
858400,360,459,369
858401,358,462,372
858402,359,462,370
858403,362,465,371
858404,364,465,373
858405,363,466,374
858406,364,465,373
858407,363,464,372
858408,362,462,372
858409,362,461,372
858410,362,460,370
858411,361,459,369
858412,360,458,369
858413,359,459,368
858414,359,457,368
858415,360,457,368
858416,357,456,367
858417,357,456,367
858418,357,453,365
858419,356,453,365
858420,356,452,365
858421,355,453,364
858422,355,455,364
858423,357,454,367
858424,354,454,367
858425,356,456,365
858426,357,456,366
858427,358,451,367
858428,358,455,367
858429,357,456,367
858430,357,457,367
858431,360,458,368
858432,361,462,367
858433,361,462,368
858434,361,468,371
858435,363,467,373
858436,364,467,374
858437,364,465,375
858438,362,460,373
858439,360,460,371
858440,360,458,369
858441,360,454,368
858442,360,458,369
858443,360,456,369
858444,359,456,369
858445,360,456,369
858446,358,458,368
858447,359,458,368
858448,360,461,369
858449,358,460,367
858450,359,459,370
858451,359,458,368
858452,359,457,368
858453,360,457,367
858454,359,458,367
858455,359,457,368
858456,360,455,367
858457,358,459,368
858458,359,458,367
858459,358,456,367
858460,359,453,368
858461,356,454,366
858462,357,454,367
858463,357,453,368
858464,358,455,366
858465,358,456,367
858466,357,452,365
858467,355,457,367
858468,358,456,366
858469,358,454,368
858470,358,455,366
858471,357,455,366
858472,356,455,366
858473,356,454,365
858474,356,456,365
858475,357,455,367
858476,356,456,365
858477,358,455,366
858478,356,455,367
858479,356,455,366
858480,357,458,367
858481,358,457,368
858482,358,455,367
858483,358,457,368
858484,358,456,369
858485,357,457,368
858486,358,457,367
858487,358,456,368
858488,358,456,367
858489,358,459,367
858490,358,458,366
858491,358,453,367
858492,357,457,366
858493,357,458,366
858494,357,459,367
858495,359,457,367
858496,358,457,368
858497,357,458,368
858498,357,457,367
858499,356,457,366
858500,357,456,367
858501,356,455,366
858502,357,454,367
858503,357,454,365
858504,356,453,366
858505,355,455,365
858506,355,454,366
858507,356,453,367
858508,357,454,366
858509,356,456,368
858510,358,459,367
858511,360,463,369
858512,361,463,370
858513,361,463,370
858514,361,464,370
858515,361,460,370
858516,359,459,370
858517,359,457,369
858518,357,457,367
858519,358,454,366
858520,355,456,366
858521,358,455,364
858522,357,455,368
858523,356,454,366
858524,357,451,366
858525,356,452,366
858526,357,454,366
858527,356,452,366
858528,356,453,366
858529,356,448,363
858530,356,451,364
858531,353,450,363
858532,354,450,362
858533,352,447,362
858534,353,451,362
858535,352,449,363
858536,353,450,362
858537,353,451,362
858538,353,452,363
858539,353,452,364
858540,354,453,363
858541,356,454,365
858542,356,455,365
858543,358,454,366
858544,357,455,365
858545,356,454,367
858546,356,454,367
858547,358,455,366
858548,356,453,367
858549,355,452,366
858550,354,452,363
858551,355,450,363
858552,354,448,363
858553,354,449,361
858554,353,448,360
858555,350,448,359
858556,350,446,360
858557,351,444,359
858558,349,444,358
858559,348,443,356
858560,348,439,356
858561,347,440,357
858562,346,440,356
858563,347,439,356
858564,348,445,358
858565,349,448,360
858566,350,450,361
858567,352,449,363
858568,355,455,365
858569,355,457,365
858570,357,460,367
858571,359,463,369
858572,360,460,369
858573,360,460,370
858574,360,462,369
858575,360,456,368
858576,358,451,366
858577,356,451,366
858578,354,450,364
858579,356,447,362
858580,353,449,361
858581,352,446,362
858582,351,444,360
858583,351,447,362
858584,352,449,361
858585,354,451,362
858586,354,453,362
858587,356,453,365
858588,355,454,364
858589,357,458,366
858590,359,461,368
858591,359,464,369
858592,360,461,370
858593,362,463,371
858594,362,463,369
858595,359,461,371
858596,359,455,369
858597,357,451,366
858598,356,449,364
858599,354,449,364
858600,353,449,362
858601,353,449,362
858602,352,449,362
858603,354,450,361
858604,352,448,362
858605,352,451,362
858606,352,447,361
858607,353,448,361
858608,352,450,361
858609,353,448,362
858610,352,448,362
858611,352,447,361
858612,352,448,361
858613,350,448,362
858614,353,448,361
858615,352,450,359
858616,351,448,360
858617,351,447,360
858618,350,445,360
858619,348,440,358
858620,347,440,355
858621,346,439,355
858622,345,439,355
858623,346,435,355
858624,347,438,354
858625,345,437,354
858626,346,438,354
858627,345,436,355
858628,347,439,356
858629,347,441,356
858630,347,440,355
858631,346,441,355
858632,349,443,356
858633,348,443,357
858634,347,442,356
858635,346,445,355
858636,347,445,357
858637,349,446,358
858638,351,445,358
858639,349,445,359
858640,352,445,360
858641,351,448,359
858642,351,447,361
858643,353,452,363
858644,353,454,365
858645,355,457,367
858646,357,461,367
858647,360,462,369
858648,360,461,369
858649,359,459,371
858650,360,456,369
858651,358,456,367
858652,358,455,367
858653,356,455,366
858654,356,454,365
858655,356,455,366
858656,355,454,365
858657,355,453,365
858658,355,450,363
858659,355,450,362
858660,354,449,364
858661,355,446,363
858662,355,449,363
858663,353,447,362
858664,353,450,362
858665,354,450,363
858666,354,452,363
858667,355,453,364
858668,356,452,365
858669,355,456,365
858670,355,454,364
858671,355,451,364
858672,356,451,364
858673,353,449,363
858674,352,446,359
858675,351,444,358
858676,348,441,358
858677,346,441,356
858678,346,439,356
858679,346,438,356
858680,347,438,354
858681,346,440,355
858682,347,441,355
858683,347,442,356
858684,347,443,357
858685,350,447,358
858686,352,447,358
858687,351,448,360
858688,351,449,360
858689,352,449,361
858690,352,453,364
858691,354,455,364
858692,357,459,365
858693,357,460,365
858694,358,462,367
858695,359,460,367
858696,357,457,368
858697,355,454,368
858698,356,453,365
858699,355,450,364
858700,355,454,366
858701,356,455,365
858702,357,457,366
858703,358,457,367
858704,358,457,366
858705,359,457,368
858706,360,452,368
858707,357,454,367
858708,356,452,365
858709,356,448,366
858710,356,448,363
858711,353,446,363
858712,352,448,361
858713,352,448,359
858714,351,448,359
858715,349,443,360
858716,350,447,360
858717,350,445,359
858718,352,444,360
858719,350,441,358
858720,348,442,358
858721,346,439,355
858722,346,440,356
858723,346,438,355
858724,343,438,353
858725,343,440,354
858726,348,439,356
858727,348,442,356
858728,347,442,357
858729,347,443,358
858730,350,448,359
858731,351,451,359
858732,353,450,359
858733,353,450,361
858734,355,452,363
858735,354,451,360
858736,352,447,361
858737,351,445,360
858738,352,441,358
858739,348,444,358
858740,348,440,357
858741,347,438,356
858742,348,440,356
858743,346,440,354
858744,347,442,355
858745,347,441,356
858746,348,441,356
858747,348,440,357
858748,348,437,356
858749,347,437,355
858750,348,438,356
858751,347,442,356
858752,348,442,356
858753,347,442,355
858754,347,440,356
858755,347,444,355
858756,347,445,357
858757,348,446,358
858758,350,448,357
858759,348,448,359
858760,350,445,358
858761,351,444,359
858762,350,445,360
858763,351,444,360
858764,351,448,360
858765,352,451,362
858766,353,450,362
858767,355,454,364
858768,354,453,363
858769,354,452,364
858770,353,451,363
858771,353,449,364
858772,351,445,360
858773,350,445,360
858774,348,440,358
858775,347,441,356
858776,346,438,355
858777,345,440,354
858778,345,439,353
858779,347,440,355
858780,347,441,354
858781,347,440,355
858782,347,442,356
858783,346,438,357
858784,348,443,355
858785,348,443,357
858786,348,444,358
858787,349,444,357
858788,350,447,360
858789,351,448,360
858790,352,450,361
858791,353,452,362
858792,353,449,363
858793,355,451,363
858794,354,454,364
858795,354,453,364
858796,354,453,364
858797,354,449,364
858798,354,453,363
858799,355,450,361
858800,354,448,362
858801,353,447,362
858802,353,445,361
858803,351,446,362
858804,350,445,359
858805,352,443,359
858806,349,444,360
858807,348,441,359
858808,350,446,359
858809,349,446,359
858810,351,447,360
858811,353,451,361
858812,353,451,362
858813,354,454,362
858814,355,451,362
858815,352,451,361
858816,352,449,361
858817,353,448,361
858818,351,444,360
858819,350,445,359
858820,349,447,358
858821,351,451,361
858822,353,454,363
858823,356,454,364
858824,357,457,366
858825,358,459,368
858826,359,458,368
858827,358,456,368
858828,357,452,368
858829,355,451,364
858830,356,448,364
858831,354,448,362
858832,353,444,361
858833,352,444,359
858834,349,444,358
858835,348,440,358
858836,348,441,357
858837,347,442,356
858838,348,446,356
858839,348,441,357
858840,348,444,357
858841,348,444,357
858842,347,447,357
858843,348,446,359
858844,351,447,359
858845,351,447,360
858846,352,450,361
858847,353,452,362
858848,354,454,364
858849,353,454,364
858850,355,453,364
858851,353,452,365
858852,353,454,364
858853,353,451,363
858854,354,451,363
858855,353,449,363
858856,353,449,360
858857,352,443,359
858858,350,443,358
858859,350,443,358
858860,349,443,357
858861,350,444,358
858862,350,445,358
858863,351,447,360
858864,350,448,361
858865,351,449,361
858866,354,451,362
858867,354,450,362
858868,355,451,363
858869,354,452,363
858870,355,453,363
858871,354,448,363
858872,351,446,362
858873,351,447,361
858874,350,445,361
858875,349,444,359
858876,349,441,357
858877,348,438,357
858878,348,438,355
858879,347,441,356
858880,347,441,357
858881,349,445,358
858882,350,448,360
858883,350,448,359
858884,351,448,360
858885,352,447,361
858886,351,447,360
858887,351,446,359
858888,350,441,359
858889,350,445,359
858890,349,443,360
858891,349,446,358
858892,349,446,358
858893,350,447,357
858894,350,448,360
858895,352,449,359
858896,351,446,358
858897,352,446,359
858898,350,443,359
858899,350,444,358
858900,350,448,360
858901,351,447,360
858902,351,448,359
858903,352,449,361
858904,353,450,362
858905,353,448,363
858906,352,447,361
858907,353,449,363
858908,354,449,362
858909,353,449,364
858910,355,452,363
858911,353,453,363
858912,354,451,363
858913,354,447,363
858914,354,448,362
858915,353,450,361
858916,354,448,363
858917,354,448,361
858918,352,448,361
858919,351,448,361
858920,352,448,360
858921,351,444,360
858922,349,444,358
858923,349,445,359
858924,349,442,359
858925,350,441,358
858926,349,443,358
858927,348,443,357
858928,351,442,360
858929,348,444,359
858930,350,443,358
858931,348,444,358
858932,348,442,358
858933,347,441,356
858934,349,443,357
858935,347,441,355
858936,347,444,355
858937,346,440,355
858938,347,444,356
858939,348,444,355
858940,347,442,357
858941,348,443,357
858942,350,444,358
858943,350,445,359
858944,351,445,362
858945,352,448,361
858946,353,450,363
858947,354,452,364
858948,354,454,364
858949,354,454,364
858950,355,453,363
858951,355,454,364
858952,354,453,363
858953,356,451,364
858954,353,451,364
858955,352,449,361
858956,352,447,362
858957,352,446,361
858958,350,444,360
858959,350,442,357
858960,348,442,359
858961,348,441,356
858962,347,441,357
858963,348,443,358
858964,347,440,356
858965,347,440,356
858966,348,444,356
858967,347,443,358
858968,349,446,358
858969,350,449,360
858970,352,452,361
858971,353,453,363
858972,355,457,364
858973,353,456,364
858974,355,455,364
858975,356,453,364
858976,354,451,364
858977,353,448,362
858978,353,447,359
858979,352,444,359
858980,350,443,359
858981,351,443,360
858982,349,444,359
858983,350,444,357
858984,348,443,357
858985,348,444,359
858986,350,445,359
858987,349,445,358
858988,349,447,358
858989,352,449,360
858990,352,447,360
858991,351,447,361
858992,350,449,359
858993,353,448,359
858994,352,453,361
858995,355,452,364
858996,356,459,364
858997,359,463,367
858998,360,460,367
858999,360,461,368
859000,360,457,369
859001,358,456,368
859002,358,452,365
859003,355,452,365
859004,355,451,365
859005,355,449,363
859006,353,450,365
859007,353,448,364
859008,356,449,364
859009,354,451,363
859010,355,452,364
859011,355,453,364
859012,356,455,366
859013,356,455,366
859014,356,455,365
859015,356,454,364
859016,357,455,364
859017,355,453,365
859018,357,454,365
859019,357,455,366
859020,355,453,365
859021,356,454,365
859022,357,456,365
859023,357,455,365
859024,358,456,367
859025,360,459,369
859026,359,462,371
859027,361,464,371
859028,363,466,372
859029,364,467,374
859030,364,465,374
859031,362,462,375
859032,363,463,373
859033,363,462,372
859034,361,460,371
859035,360,456,372
859036,359,458,370
859037,358,458,367
859038,359,457,368
859039,359,456,368
859040,358,454,366
859041,358,455,366
859042,358,453,366
859043,356,455,366
859044,358,454,365
859045,357,449,366
859046,356,453,365
859047,357,452,365
859048,355,452,365
859049,355,451,364
859050,356,451,364
859051,355,454,365
859052,355,450,364
859053,354,454,364
859054,354,454,364
859055,355,456,364
859056,355,458,366
859057,356,459,367
859058,359,463,369
859059,361,462,370
859060,360,463,369
859061,361,462,372
859062,360,460,371
859063,361,460,368
859064,360,457,369
859065,359,456,368
859066,359,456,369
859067,359,456,367
859068,357,452,368
859069,356,451,366
859070,357,453,366
859071,356,455,363
859072,357,451,364
859073,354,451,364
859074,355,451,363
859075,351,448,361
859076,351,447,361
859077,352,449,359
859078,351,450,360
859079,352,448,360
859080,352,448,361
859081,353,447,360
859082,352,449,362
859083,355,454,364
859084,356,456,366
859085,358,460,367
859086,360,462,369
859087,360,464,371
859088,361,465,372
859089,363,465,371
859090,363,465,372
859091,362,463,373
859092,362,461,372
859093,360,460,370
859094,361,458,369
859095,358,458,368
859096,359,459,370
859097,359,458,368
859098,360,461,369
859099,360,461,368
859100,359,461,370
859101,360,459,371
859102,360,461,369
859103,359,460,370
859104,360,460,369
859105,360,458,370
859106,358,456,370
859107,358,459,368
859108,360,459,367
859109,360,459,369
859110,360,456,368
859111,360,457,368
859112,359,454,368
859113,357,454,366
859114,356,456,365
859115,355,453,365
859116,355,454,364
859117,355,452,364
859118,355,454,364
859119,355,450,364
859120,356,453,364
859121,355,453,364
859122,355,453,364
859123,356,451,364
859124,356,452,364
859125,356,452,365
859126,356,453,364
859127,355,453,364
859128,356,454,365
859129,356,456,365
859130,355,453,366
859131,357,455,366
859132,355,455,365
859133,355,454,365
859134,355,450,365
859135,354,452,364
859136,355,452,363
859137,354,451,364
859138,352,449,363
859139,354,450,362
859140,354,449,361
859141,353,450,363
859142,353,451,363
859143,355,451,362
859144,354,451,365
859145,354,452,364
859146,355,454,364
859147,356,454,365
859148,355,454,366
859149,355,455,367
859150,356,457,366
859151,358,457,367
859152,357,459,365
859153,359,461,368
859154,359,462,370
859155,361,464,370
859156,361,465,371
859157,362,465,372
859158,364,464,372
859159,362,462,372
859160,362,461,371
859161,361,460,370
859162,361,458,370
859163,361,460,369
859164,360,460,370
859165,360,460,370
859166,363,462,372
859167,361,459,370
859168,361,460,370
859169,361,461,372
859170,362,459,371
859171,361,459,371
859172,359,459,371
859173,359,458,369
859174,359,459,369
859175,360,458,368
859176,359,456,367
859177,356,458,367
859178,358,454,367
859179,357,455,368
859180,357,455,365
859181,357,455,367
859182,356,458,368
859183,355,454,364
859184,356,452,365
859185,356,452,366
859186,357,453,366
859187,357,455,366
859188,358,453,366
859189,360,459,367
859190,358,460,369
859191,359,461,367
859192,359,460,367
859193,360,457,368
859194,358,458,368
859195,357,457,367
859196,358,456,366
859197,358,456,367
859198,357,454,367
859199,356,454,367
859200,356,453,365
859201,356,453,365
859202,357,454,365
859203,356,454,365
859204,357,454,367
859205,357,452,366
859206,356,454,366
859207,357,455,367
859208,358,456,367
859209,356,455,367
859210,357,456,367
859211,358,456,368
859212,358,459,368
859213,358,458,367
859214,359,457,367
859215,358,458,368
859216,357,459,368
859217,358,457,367
859218,358,455,366
859219,358,454,367
859220,359,458,368
859221,359,460,367
859222,360,460,369
859223,361,458,370
859224,360,461,370
859225,363,464,371
859226,361,463,373
859227,362,463,372
859228,363,461,371
859229,361,460,372
859230,363,463,372
859231,363,464,371
859232,363,464,372
859233,362,467,372
859234,361,461,371
859235,361,463,372
859236,362,466,372
859237,361,466,371
859238,364,466,374
859239,364,466,372
859240,364,468,374
859241,364,466,375
859242,365,465,374
859243,364,466,373
859244,364,466,374
859245,364,463,374
859246,365,463,375
859247,364,467,376
859248,366,463,373
859249,363,463,374
859250,365,462,373
859251,362,461,372
859252,363,463,371
859253,362,464,371
859254,360,459,369
859255,359,462,369
859256,359,458,370
859257,359,456,367
859258,358,455,367
859259,358,456,368
859260,358,455,366
859261,359,457,367
859262,358,457,367
859263,359,456,367
859264,360,456,368
859265,358,456,368
859266,359,459,369
859267,360,461,369
859268,360,462,371
859269,359,461,370
859270,361,462,370
859271,362,463,371
859272,360,464,371
859273,361,464,372
859274,363,465,373
859275,361,464,372
859276,362,463,373
859277,362,463,373
859278,362,465,370
859279,363,463,372
859280,361,462,371
859281,362,464,371
859282,360,462,371
859283,363,462,371
859284,362,463,373
859285,362,465,374
859286,364,463,373
859287,365,464,374
859288,365,467,376
859289,365,468,376
859290,365,467,376
859291,367,470,377
859292,367,470,377
859293,367,470,376
859294,366,472,376
859295,366,468,376
859296,366,470,376
859297,367,469,377
859298,367,467,378
859299,367,470,375
859300,367,472,377
859301,366,468,376
859302,367,467,376
859303,367,467,378
859304,368,468,378
859305,368,468,377
859306,369,468,377
859307,368,469,377
859308,369,468,378
859309,367,475,376
859310,367,473,377
859311,367,470,377
859312,368,470,377
859313,367,471,377
859314,366,471,376
859315,367,471,378
859316,366,471,375
859317,367,467,377
859318,365,469,375
859319,367,471,375
859320,366,468,375
859321,367,466,376
859322,366,470,376
859323,367,468,375
859324,366,467,376
859325,365,467,376
859326,367,468,375
859327,367,469,377
859328,366,469,376
859329,368,468,376
859330,368,470,377
859331,368,471,377
859332,368,465,377
859333,369,472,376
859334,370,471,378
859335,367,469,377
859336,367,469,376
859337,366,467,377
859338,366,467,375
859339,366,467,376
859340,365,466,375
859341,364,468,375
859342,365,468,376
859343,366,467,375
859344,366,466,377
859345,366,468,375
859346,365,469,375
859347,367,469,377
859348,368,467,375
859349,368,466,377
859350,367,469,377
859351,367,469,377
859352,365,467,375
859353,366,469,376
859354,368,469,376
859355,367,469,375
859356,366,469,376
859357,367,469,377
859358,368,470,377
859359,369,473,377
859360,367,473,378
859361,369,471,380
859362,370,470,379
859363,369,470,379
859364,367,471,378
859365,367,470,377
859366,367,467,377
859367,366,467,376
859368,367,471,378
859369,368,473,379
859370,369,476,379
859371,370,478,380
859372,370,474,381
859373,370,476,380
859374,369,473,379
859375,369,472,378
859376,369,470,379
859377,367,467,378
859378,365,468,375
859379,364,467,375
859380,364,465,372
859381,364,465,374
859382,364,463,373
859383,365,465,374
859384,363,464,372
859385,363,461,373
859386,363,464,374
859387,364,465,373
859388,364,465,374
859389,364,465,374
859390,363,466,372
859391,364,466,374
859392,363,466,373
859393,363,462,373
859394,364,466,372
859395,363,464,373
859396,362,464,372
859397,362,459,372
859398,362,463,372
859399,361,460,371
859400,362,459,371
859401,362,459,369
859402,361,461,371
859403,362,461,371
859404,360,462,371
859405,360,462,372
859406,360,461,371
859407,363,462,372
859408,363,464,372
859409,361,464,373
859410,363,462,372
859411,364,464,372
859412,362,465,373
859413,360,462,372
859414,362,464,373
859415,360,462,371
859416,362,460,371
859417,361,463,371
