Time (ms),Bicep,Shoulder,Tricep
399210,358,456,369
399211,360,458,370
399212,359,459,369
399213,359,456,369
399214,361,459,369
399215,360,459,370
399216,360,455,371
399217,359,460,368
399218,360,461,369
399219,357,459,368
399220,360,460,368
399221,356,459,367
399222,357,457,367
399223,358,458,366
399224,357,454,367
399225,359,454,368
399226,358,456,367
399227,356,456,367
399228,359,457,369
399229,360,458,369
399230,359,455,368
399231,359,459,369
399232,359,459,369
399233,359,460,368
399234,359,460,368
399235,360,461,369
399236,361,461,369
399237,361,457,370
399238,360,462,369
399239,360,461,369
399240,359,460,369
399241,359,458,367
399242,358,458,369
399243,359,458,368
399244,358,458,368
399245,358,457,367
399246,358,457,367
399247,358,456,369
399248,357,456,368
399249,359,457,369
399250,359,458,369
399251,360,458,370
399252,360,459,369
399253,360,460,369
399254,360,460,372
399255,359,462,368
399256,361,462,371
399257,360,461,370
399258,360,461,367
399259,360,460,370
399260,359,460,368
399261,359,461,369
399262,359,458,367
399263,359,458,369
399264,360,454,368
399265,359,457,370
399266,360,460,368
399267,359,458,367
399268,359,459,367
399269,359,457,368
399270,357,459,370
399271,360,459,369
399272,361,457,370
399273,362,461,370
399274,361,462,372
399275,361,462,371
399276,361,462,371
399277,361,461,371
399278,361,461,372
399279,361,463,369
399280,361,461,370
399281,360,457,370
399282,359,458,368
399283,359,455,368
399284,360,459,368
399285,358,457,368
399286,359,455,368
399287,360,460,369
399288,359,458,369
399289,360,459,369
399290,362,460,369
399291,360,460,371
399292,361,458,370
399293,361,460,371
399294,361,461,371
399295,361,458,371
399296,361,462,370
399297,360,461,371
399298,360,461,369
399299,361,461,369
399300,360,459,370
399301,359,459,370
399302,359,460,368
399303,358,458,368
399304,359,456,368
399305,359,459,367
399306,359,458,368
399307,359,458,369
399308,360,456,369
399309,361,459,370
399310,361,460,370
399311,362,461,371
399312,361,461,371
399313,361,460,370
399314,362,459,371
399315,361,462,372
399316,362,464,370
399317,361,464,370
399318,361,462,370
399319,361,462,370
399320,361,462,370
399321,361,461,370
399322,362,460,368
399323,360,459,369
399324,358,461,368
399325,359,460,368
399326,360,459,369
399327,360,457,370
399328,361,458,370
399329,361,460,370
399330,361,457,371
399331,360,462,371
399332,361,461,370
399333,362,461,373
399334,360,460,371
399335,361,463,371
399336,361,464,371
399337,361,464,370
399338,362,463,370
399339,362,463,371
399340,361,462,370
399341,360,461,370
399342,360,461,369
399343,359,460,369
399344,360,461,368
399345,360,459,369
399346,360,456,369
399347,360,459,370
399348,360,459,369
399349,360,459,370
399350,361,460,370
399351,360,461,370
399352,360,461,371
399353,360,463,370
399354,361,462,371
399355,363,463,372
399356,363,463,372
399357,361,464,371
399358,363,462,370
399359,362,461,372
399360,362,463,370
399361,360,462,371
399362,358,460,369
399363,361,459,370
399364,360,459,367
399365,359,458,368
399366,361,459,369
399367,361,459,369
399368,360,457,368
399369,361,458,370
399370,360,460,370
399371,361,459,372
399372,360,460,370
399373,361,462,372
399374,362,461,371
399375,362,462,370
399376,363,463,370
399377,362,463,370
399378,361,462,371
399379,361,461,370
399380,361,461,369
399381,361,461,369
399382,360,460,368
399383,360,460,367
399384,358,459,368
399385,358,458,368
399386,359,457,369
399387,359,457,369
399388,359,458,369
399389,360,459,369
399390,359,459,369
399391,361,460,368
399392,361,460,369
399393,361,460,370
399394,362,461,371
399395,362,462,370
399396,359,461,370
399397,361,461,370
399398,361,460,368
399399,360,462,369
399400,361,460,368
399401,359,459,368
399402,358,459,368
399403,359,459,368
399404,358,457,367
399405,358,456,367
399406,359,455,368
399407,357,458,367
399408,359,457,368
399409,358,457,369
399410,359,459,369
399411,360,458,368
399412,360,460,368
399413,359,460,370
399414,360,461,370
399415,361,461,370
399416,359,460,369
399417,360,461,370
399418,360,460,370
399419,360,460,370
399420,359,461,368
399421,359,459,369
399422,359,458,369
399423,359,455,367
399424,357,458,368
399425,358,457,367
399426,359,456,367
399427,358,457,367
399428,358,456,368
399429,359,457,368
399430,360,457,369
399431,359,458,370
399432,360,460,370
399433,359,458,370
399434,359,459,369
399435,358,461,369
399436,360,459,368
399437,360,459,369
399438,358,456,370
399439,358,458,369
399440,360,459,368
399441,359,459,367
399442,357,459,367
399443,358,457,367
399444,359,457,367
399445,358,458,367
399446,358,456,367
399447,359,456,367
399448,359,456,367
399449,359,455,368
399450,361,454,369
399451,360,455,368
399452,359,455,369
399453,361,461,370
399454,360,460,370
399455,361,462,368
399456,360,463,370
399457,361,462,369
399458,360,462,369
399459,361,458,369
399460,359,457,368
399461,360,458,368
399462,359,459,368
399463,360,457,368
399464,359,457,367
399465,358,458,369
399466,358,455,369
399467,359,457,368
399468,358,457,368
399469,360,457,370
399470,360,457,369
399471,358,458,368
399472,358,460,369
399473,359,459,369
399474,360,459,370
399475,361,460,369
399476,360,461,369
399477,360,461,369
399478,359,461,367
399479,359,458,369
399480,359,460,368
399481,359,456,368
399482,359,456,368
399483,357,458,368
399484,356,455,366
399485,358,454,366
399486,358,455,367
399487,357,455,366
399488,358,458,367
399489,359,456,368
399490,359,457,367
399491,359,456,367
399492,359,459,370
399493,360,459,370
399494,360,460,370
399495,361,460,370
399496,358,460,369
399497,360,460,369
399498,359,460,369
399499,359,459,368
399500,358,457,367
399501,358,458,367
399502,358,455,367
399503,356,455,366
399504,358,457,366
399505,356,456,366
399506,357,456,366
399507,356,454,366
399508,358,456,365
399509,358,452,367
399510,359,456,368
399511,357,457,367
399512,358,453,369
399513,358,456,367
399514,360,458,369
399515,359,456,369
399516,358,460,369
399517,358,461,368
399518,359,459,368
399519,359,459,367
399520,358,458,366
399521,357,457,368
399522,359,457,368
399523,357,455,366
399524,357,455,366
399525,357,454,367
399526,358,456,365
399527,358,456,365
399528,358,455,366
399529,357,454,365
399530,357,456,366
399531,360,450,368
399532,359,456,367
399533,359,456,368
399534,357,458,370
399535,358,460,367
399536,359,460,367
399537,357,459,367
399538,357,457,367
399539,357,459,369
399540,357,458,367
399541,359,459,367
399542,357,458,367
399543,356,456,366
399544,356,455,367
399545,356,456,365
399546,356,454,366
399547,357,451,367
399548,357,456,369
399549,358,453,367
399550,359,454,369
399551,359,456,369
399552,358,457,368
399553,359,457,368
399554,359,462,369
399555,360,460,370
399556,359,458,370
399557,359,458,369
399558,359,460,368
399559,359,459,367
399560,359,459,367
399561,359,457,367
399562,359,457,366
399563,358,457,365
399564,358,455,367
399565,357,455,366
399566,359,455,367
399567,358,456,365
399568,357,455,367
399569,357,457,367
399570,359,455,368
399571,359,457,368
399572,358,460,367
399573,359,460,369
399574,360,458,370
399575,360,460,368
399576,360,458,369
399577,361,458,368
399578,358,460,369
399579,359,460,369
399580,360,459,368
399581,358,460,368
399582,359,458,368
399583,359,459,369
399584,357,457,367
399585,357,457,367
399586,360,456,368
399587,359,458,367
399588,359,461,369
399589,360,459,369
399590,361,460,369
399591,361,458,370
399592,362,462,371
399593,362,461,372
399594,361,462,371
399595,362,462,371
399596,360,460,370
399597,360,461,370
399598,361,461,369
399599,360,459,368
399600,359,461,369
399601,359,460,368
399602,359,457,369
399603,360,456,368
399604,358,458,369
399605,359,458,368
399606,358,453,366
399607,359,456,367
399608,359,456,369
399609,359,456,368
399610,358,457,369
399611,358,459,368
399612,360,457,370
399613,359,458,369
399614,360,459,370
399615,360,459,369
399616,360,461,369
399617,360,459,368
399618,360,461,368
399619,359,456,367
399620,359,459,367
399621,360,460,368
399622,359,458,367
399623,358,457,368
399624,357,457,367
399625,358,454,366
399626,358,457,367
399627,358,455,367
399628,359,455,369
399629,358,455,369
399630,360,456,368
399631,359,458,368
399632,360,459,370
399633,360,458,370
399634,360,458,371
399635,360,460,369
399636,360,459,369
399637,360,462,369
399638,358,459,369
399639,357,459,368
399640,359,459,369
399641,359,456,368
399642,359,459,367
399643,358,455,367
399644,358,455,366
399645,358,457,367
399646,359,453,366
399647,359,456,368
399648,359,456,367
399649,360,454,367
399650,358,457,367
399651,359,460,369
399652,359,458,369
399653,359,460,369
399654,360,459,369
399655,360,459,370
399656,360,461,368
399657,361,460,369
399658,359,460,369
399659,360,461,370
399660,359,460,366
399661,359,460,368
399662,359,459,367
399663,359,455,367
399664,358,456,368
399665,358,455,368
399666,357,456,367
399667,358,456,369
399668,359,457,367
399669,357,456,368
399670,358,457,370
399671,358,458,369
399672,358,458,368
399673,360,457,369
399674,360,461,369
399675,359,462,371
399676,360,458,369
399677,361,462,369
399678,358,460,369
399679,360,459,367
399680,359,459,368
399681,358,459,369
399682,359,458,369
399683,359,459,368
399684,357,456,366
399685,359,453,367
399686,358,456,366
399687,358,456,367
399688,359,457,367
399689,358,454,367
399690,360,456,370
399691,359,458,369
399692,361,460,370
399693,361,458,369
399694,360,460,369
399695,362,461,370
399696,361,462,369
399697,359,457,369
399698,360,462,369
399699,358,461,370
399700,360,461,368
399701,359,458,369
399702,358,458,368
399703,359,459,367
399704,357,459,369
399705,358,459,367
399706,359,456,368
399707,359,459,368
399708,359,457,368
399709,360,458,368
399710,359,456,369
399711,360,457,369
399712,358,461,370
399713,359,460,370
399714,360,460,371
399715,361,461,370
399716,361,462,370
399717,361,459,371
399718,361,460,369
399719,360,461,369
399720,359,458,369
399721,360,461,368
399722,360,459,369
399723,359,458,368
399724,360,460,367
399725,359,457,368
399726,359,458,367
399727,359,458,369
399728,360,458,368
399729,359,457,368
399730,358,459,369
399731,361,459,367
399732,360,460,368
399733,361,458,369
399734,361,462,371
399735,361,461,370
399736,360,460,370
399737,361,459,370
399738,361,462,369
399739,360,460,370
399740,361,457,368
399741,359,459,369
399742,357,458,368
399743,360,459,368
399744,360,455,369
399745,359,457,366
399746,359,454,367
399747,360,457,368
399748,358,457,368
399749,358,459,368
399750,359,458,369
399751,359,458,368
399752,359,459,371
399753,360,455,368
399754,361,457,368
399755,361,459,371
399756,361,461,370
399757,361,461,371
399758,360,457,369
399759,360,462,368
399760,359,460,368
399761,360,461,368
399762,358,458,367
399763,359,457,369
399764,359,458,367
399765,359,457,367
399766,359,455,367
399767,359,457,369
399768,358,457,368
399769,360,457,369
399770,360,458,369
399771,360,454,369
399772,360,458,370
399773,361,460,371
399774,361,458,370
399775,361,459,369
399776,362,461,370
399777,360,458,369
399778,360,458,370
399779,357,458,369
399780,360,460,368
399781,356,458,367
399782,359,456,368
399783,360,454,368
399784,358,457,366
399785,358,457,368
399786,358,455,366
399787,358,456,367
399788,357,455,367
399789,359,459,370
399790,360,457,369
399791,360,456,370
399792,361,456,370
399793,361,460,371
399794,360,461,371
399795,361,460,370
399796,362,460,369
399797,360,462,371
399798,359,461,368
399799,358,460,369
399800,360,461,368
399801,360,462,368
399802,358,458,368
399803,359,456,367
399804,359,459,368
399805,359,458,368
399806,360,458,367
399807,359,459,370
399808,360,457,368
399809,360,459,369
399810,360,459,369
399811,360,457,372
399812,359,460,372
399813,361,461,370
399814,362,462,371
399815,360,461,371
399816,360,462,370
399817,361,462,370
399818,362,460,370
399819,361,463,371
399820,359,460,368
399821,361,459,368
399822,360,457,368
399823,356,458,368
399824,359,455,369
399825,358,459,366
399826,360,458,368
399827,359,454,369
399828,359,457,369
399829,360,458,370
399830,360,458,369
399831,360,460,369
399832,361,457,370
399833,360,459,370
399834,361,461,370
399835,361,462,371
399836,360,463,370
399837,359,461,370
399838,361,462,370
399839,360,461,368
399840,360,458,367
399841,359,461,369
399842,358,459,367
399843,358,456,367
399844,357,457,368
399845,357,453,367
399846,358,457,367
399847,359,457,367
399848,359,457,368
399849,359,455,368
399850,359,454,369
399851,361,455,370
399852,360,455,370
399853,361,460,371
399854,360,460,369
399855,361,459,371
399856,361,459,370
399857,361,461,371
399858,359,458,370
399859,360,461,369
399860,359,461,369
399861,359,460,367
399862,358,459,368
399863,358,457,368
399864,359,457,368
399865,358,455,368
399866,359,456,369
399867,359,456,369
399868,358,456,369
399869,357,457,368
399870,360,457,368
399871,359,458,369
399872,360,459,370
399873,361,460,370
399874,361,460,371
399875,361,459,370
399876,360,460,369
399877,361,459,370
399878,360,460,370
399879,360,459,370
399880,360,459,369
399881,358,460,370
399882,357,459,366
399883,359,459,367
399884,360,458,367
399885,358,456,369
399886,357,457,367
399887,358,457,366
399888,359,453,367
399889,360,457,368
399890,358,458,368
399891,357,459,367
399892,359,458,370
399893,361,461,370
399894,360,460,370
399895,360,460,370
399896,361,459,368
399897,359,462,369
399898,360,460,368
399899,359,460,369
399900,358,460,369
399901,358,461,368
399902,359,460,369
399903,359,458,370
399904,357,458,368
399905,359,454,369
399906,359,456,369
399907,359,458,368
399908,358,457,368
399909,357,458,369
399910,358,458,368
399911,359,458,369
399912,360,459,370
399913,359,461,370
399914,360,458,371
399915,360,463,370
399916,361,458,370
399917,362,461,369
399918,359,461,370
399919,360,460,369
399920,360,461,370
399921,360,461,368
399922,359,460,368
399923,359,460,367
399924,358,460,368
399925,359,458,367
399926,358,458,368
399927,360,457,370
399928,360,455,369
399929,358,456,370
399930,359,456,368
399931,360,456,370
399932,360,457,369
399933,361,459,372
399934,362,462,373
399935,361,463,372
399936,362,462,370
399937,361,462,371
399938,361,461,371
399939,360,462,370
399940,361,462,369
399941,360,461,368
399942,359,459,368
399943,359,460,367
399944,359,457,368
399945,360,458,368
399946,359,459,368
399947,359,459,368
399948,359,457,370
399949,359,459,368
399950,360,458,369
399951,361,459,371
399952,362,457,370
399953,362,462,371
399954,360,461,370
399955,362,459,373
399956,361,463,371
399957,362,462,370
399958,361,463,370
399959,362,463,371
399960,362,461,369
399961,359,461,371
399962,360,460,370
399963,360,460,370
399964,360,459,370
399965,361,455,368
399966,360,459,367
399967,361,458,370
399968,359,459,369
399969,359,458,368
399970,361,459,370
399971,359,459,370
399972,359,462,371
399973,359,462,371
399974,361,459,371
399975,362,461,370
399976,360,462,370
399977,360,461,371
399978,359,462,370
399979,361,462,370
399980,362,458,371
399981,361,459,370
399982,360,460,368
399983,359,458,368
399984,359,459,367
399985,359,458,368
399986,360,457,368
399987,359,457,369
399988,359,456,370
399989,359,454,369
399990,360,459,370
399991,360,458,369
399992,362,461,371
399993,362,460,371
399994,361,460,371
399995,361,463,370
399996,362,462,370
399997,361,458,370
399998,362,462,371
399999,361,460,369
400000,360,461,370
400001,359,461,368
400002,357,461,367
400003,359,458,369
400004,359,459,368
400005,360,460,368
400006,358,457,368
400007,359,457,368
400008,360,455,367
400009,360,458,369
400010,360,458,368
400011,360,457,370
400012,360,460,372
400013,359,461,370
400014,360,461,371
400015,360,462,370
400016,360,461,370
400017,361,463,370
400018,360,460,371
400019,359,464,371
400020,360,461,369
400021,360,459,369
400022,360,461,370
400023,359,460,369
400024,360,456,368
400025,359,459,370
400026,360,457,369
400027,360,459,368
400028,359,456,368
400029,360,458,370
400030,361,458,370
400031,360,459,369
400032,361,458,369
400033,360,460,370
400034,360,462,371
400035,362,460,372
400036,361,462,372
400037,361,463,370
400038,359,463,369
400039,361,463,370
400040,360,460,369
400041,360,461,370
400042,360,459,370
400043,361,458,371
400044,360,457,369
400045,359,459,368
400046,359,456,369
400047,360,457,369
400048,358,458,369
400049,359,457,368
400050,360,458,370
400051,360,459,370
400052,360,460,371
400053,360,459,371
400054,360,461,370
400055,362,461,369
400056,361,462,371
400057,361,459,372
400058,361,462,371
400059,361,461,370
400060,359,459,370
400061,360,461,369
400062,361,459,370
400063,359,460,368
400064,360,457,368
400065,359,458,369
400066,360,457,369
400067,359,458,367
400068,359,457,369
400069,360,459,368
400070,359,457,369
400071,360,461,369
400072,360,459,369
400073,360,459,371
400074,360,462,370
400075,363,465,371
400076,361,462,370
400077,360,462,371
400078,361,462,369
400079,361,461,369
400080,361,460,371
400081,361,462,371
400082,359,462,369
400083,359,459,369
400084,359,458,368
400085,360,460,367
400086,360,459,369
400087,359,457,369
400088,359,456,368
400089,359,458,370
400090,361,459,370
400091,360,460,371
400092,361,460,371
400093,362,461,372
400094,363,461,371
400095,362,462,372
400096,362,462,371
400097,362,462,371
400098,364,463,372
400099,362,462,371
400100,361,463,372
400101,362,461,370
400102,360,460,370
400103,361,460,371
400104,360,459,369
400105,359,460,368
400106,358,458,369
400107,360,460,369
400108,359,457,368
400109,361,459,370
400110,361,460,371
400111,360,460,370
400112,360,459,370
400113,360,460,370
400114,362,463,372
400115,361,463,372
400116,363,461,371
400117,362,461,372
400118,361,464,371
400119,362,461,370
400120,359,462,370
400121,361,462,368
400122,360,460,369
400123,361,461,369
400124,360,460,368
400125,360,459,368
400126,359,456,368
400127,359,458,369
400128,359,459,368
400129,360,459,370
400130,359,460,369
400131,360,457,370
400132,361,461,371
400133,361,461,372
400134,361,460,373
400135,362,463,372
400136,362,464,371
400137,361,464,370
400138,363,463,371
400139,362,463,369
400140,359,460,370
400141,361,461,369
400142,360,461,369
400143,360,460,370
400144,360,456,368
400145,360,460,369
400146,357,459,369
400147,359,458,370
400148,358,458,369
400149,360,459,371
400150,360,459,369
400151,360,460,372
400152,359,459,370
400153,360,460,370
400154,361,459,371
400155,362,458,371
400156,361,460,371
400157,362,459,372
400158,361,463,370
400159,361,462,369
400160,361,461,369
400161,360,462,370
400162,360,461,369
400163,359,460,370
400164,359,459,369
400165,359,460,369
400166,359,459,368
400167,360,458,370
400168,361,459,368
400169,360,460,370
400170,359,459,369
400171,360,460,369
400172,361,459,371
400173,361,460,371
400174,361,461,372
400175,361,462,372
400176,362,460,371
400177,362,464,372
400178,362,464,371
400179,362,460,371
400180,361,461,371
400181,361,462,371
400182,359,462,368
400183,360,461,370
400184,360,459,369
400185,361,457,369
400186,361,459,369
400187,359,458,370
400188,359,458,368
400189,359,457,370
400190,360,460,369
400191,361,461,371
400192,360,461,370
400193,361,462,371
400194,362,461,370
400195,361,460,370
400196,360,463,372
400197,362,463,370
400198,362,463,371
400199,361,462,370
400200,361,462,370
400201,360,462,371
400202,362,461,371
400203,360,456,369
400204,359,459,368
400205,359,459,368
400206,360,459,368
400207,359,460,367
400208,359,458,370
400209,359,460,368
400210,359,458,370
400211,361,458,371
400212,360,460,369
400213,361,460,371
400214,362,461,371
400215,361,460,371
400216,361,464,371
400217,360,459,371
400218,362,463,370
400219,360,462,370
400220,361,461,370
400221,360,461,368
400226,353,459,363
400227,355,459,365
400228,358,457,367
400229,357,458,367
400230,359,457,369
400230,359,460,369
400231,360,459,370
400232,360,461,371
400233,361,462,372
400234,361,463,371
400235,362,460,371
400236,362,460,370
400237,363,461,371
400238,362,461,372
400238,363,459,370
400239,362,462,371
400240,361,463,372
400241,361,462,370
400242,361,461,370
400243,360,461,370
400244,360,462,370
400245,360,459,370
400246,361,456,370
400246,360,458,370
400247,362,458,369
400248,362,458,370
400249,360,460,371
400250,362,459,369
400251,362,459,371
400252,362,458,372
400253,363,462,370
400253,363,462,372
400254,362,462,371
400255,362,463,371
400256,362,462,371
400257,361,461,371
400258,360,463,371
400259,362,462,371
400260,361,462,369
400261,360,461,370
400262,360,459,371
400263,361,460,369
400264,360,459,367
400265,361,459,367
400266,359,458,370
400267,359,460,368
400268,361,460,368
400269,361,457,371
400270,360,461,370
400271,360,460,371
400272,361,460,371
400273,360,461,371
400274,360,462,371
400275,361,463,369
400276,362,462,371
400277,360,465,371
400278,360,462,370
400279,359,464,370
400280,360,461,369
400281,360,461,370
400282,360,461,369
400283,360,459,369
400284,360,460,368
400285,359,456,368
400286,360,458,369
400287,359,460,368
400288,359,458,369
400289,361,457,369
400290,360,458,369
400291,360,459,370
400292,360,460,368
400293,360,460,370
400294,359,461,370
400295,362,461,370
400296,361,463,371
400297,362,462,371
400298,363,462,369
400299,362,461,370
400300,360,461,370
400301,360,461,370
400302,360,460,368
400303,360,459,369
400304,359,459,369
400305,360,459,368
400306,359,459,368
400307,360,459,368
400308,359,457,371
400309,359,458,370
400310,359,460,368
400311,360,458,370
400312,358,461,369
400313,360,459,369
400314,361,457,372
400315,362,461,370
400316,361,461,370
400317,361,462,370
400318,360,462,370
400319,362,462,370
400320,360,462,369
400321,360,460,369
400322,360,458,369
400323,358,459,369
400324,359,458,368
400325,357,459,366
400326,359,458,367
400327,359,458,368
400328,360,458,369
400329,361,457,370
400330,360,457,369
400331,360,457,370
400332,359,460,371
400333,360,460,370
400334,362,461,370
400335,362,462,370
400336,362,461,370
400337,362,460,371
400338,361,458,369
400339,359,461,369
400340,359,460,369
400341,358,458,369
400342,360,459,368
400343,358,456,368
400344,360,459,369
400345,358,460,368
400346,359,458,366
400347,358,456,369
400348,359,458,368
400349,359,456,369
400350,359,459,369
400351,358,457,367
400352,359,458,369
400353,359,460,370
400354,360,459,370
400355,361,460,370
400356,359,462,370
400357,360,461,370
400358,361,462,369
400359,361,461,369
400360,360,459,370
400361,360,460,370
400362,359,460,370
400363,359,460,368
400364,359,459,366
400365,358,457,368
400366,359,457,368
400367,359,456,369
400368,359,457,368
400369,360,456,369
400370,360,455,368
400371,360,456,371
400372,359,456,369
400373,361,457,371
400374,360,458,369
400375,359,460,370
400376,361,461,370
400377,360,460,369
400378,361,461,370
400379,359,461,369
400380,358,460,368
400381,359,459,368
400382,360,460,368
400383,359,458,367
400384,357,459,366
400385,358,458,365
400386,356,457,367
400387,358,457,366
400388,358,455,368
400389,358,457,370
400390,360,456,368
400391,359,458,370
400392,360,460,372
400393,360,457,370
400394,360,460,370
400395,361,461,371
400396,361,460,370
400397,361,460,370
400398,360,461,370
400399,361,461,369
400400,360,461,369
400401,361,460,367
400402,360,457,368
400403,358,461,368
400404,359,457,368
400405,360,455,368
400406,359,458,368
400407,359,457,368
400408,359,455,368
400409,359,459,369
400410,359,457,370
400411,358,459,369
400412,360,458,370
400413,361,460,370
400414,360,460,371
400415,361,462,371
400416,360,460,370
400417,360,460,371
400418,361,462,370
400419,361,461,369
400420,361,463,369
400421,360,462,369
400422,360,460,368
400423,359,458,369
400424,360,458,369
400425,360,459,369
400426,359,457,368
400427,358,453,369
400428,360,457,369
400429,361,458,368
400430,360,459,371
400431,360,459,371
400432,360,460,369
400433,361,461,370
400434,360,462,371
400435,360,461,369
400436,362,461,370
400437,360,463,370
400438,362,463,371
400439,362,461,371
400440,359,463,371
400441,362,460,369
400442,363,456,369
400443,361,462,369
400444,359,460,368
400445,360,459,369
400446,359,458,368
400447,359,457,369
400448,360,458,369
400449,359,457,369
400450,359,460,369
400451,361,460,370
400452,361,460,369
400453,361,461,368
400454,361,458,372
400455,362,463,371
400456,362,460,372
400457,363,463,371
400458,360,462,370
400459,362,462,372
400460,360,459,369
400461,361,461,369
400462,361,458,369
400463,360,459,368
400464,359,460,368
400465,359,459,367
400466,360,458,370
400467,358,459,370
400468,359,456,369
400469,361,459,367
400470,360,459,369
400471,359,458,370
400472,359,460,370
400473,361,460,372
400474,361,461,371
400475,360,461,371
400476,360,461,371
400477,360,462,372
400478,360,460,370
400479,360,463,369
400480,360,461,368
400481,360,460,368
400482,359,459,369
400483,359,460,368
400484,358,458,368
400485,359,457,370
400486,360,460,369
400487,358,460,369
400488,360,458,370
400489,360,460,369
400490,360,458,369
400491,359,460,371
400492,360,460,370
400493,360,460,370
400494,361,460,370
400495,363,462,371
400496,361,462,369
400497,362,462,372
400498,362,464,370
400499,359,464,370
400500,360,461,369
400501,360,461,370
400502,360,462,370
400503,359,460,367
400504,360,460,370
400505,359,459,368
400506,359,459,369
400507,359,460,367
400508,359,459,369
400509,360,458,369
400510,360,459,370
400511,360,456,370
400512,360,459,370
400513,361,458,370
400514,360,460,372
400515,361,462,371
400516,361,461,369
400517,362,463,372
400518,360,463,370
400519,360,459,370
400520,360,461,371
400521,362,461,370
400522,362,462,369
400523,360,460,370
400524,359,461,370
400525,358,459,368
400526,360,458,369
400527,359,460,368
400528,359,457,367
400529,360,458,370
400530,359,457,370
400531,362,460,370
400532,361,460,370
400533,362,458,372
400534,362,461,370
400535,361,460,370
400536,361,461,370
400537,362,462,372
400538,360,464,371
400539,361,463,371
400540,360,463,370
400541,359,462,370
400542,360,461,371
400543,361,461,369
400544,359,460,368
400545,360,459,368
400546,359,457,369
400547,360,459,370
400548,361,456,370
400549,361,456,371
400550,361,459,372
400551,361,457,370
400552,360,460,369
400553,360,461,372
400554,361,462,372
400555,363,463,371
400556,361,462,372
400557,362,462,370
400558,362,463,370
400559,363,464,371
400560,360,463,369
400561,361,462,369
400562,359,461,369
400563,360,461,368
400564,360,460,367
400565,360,459,369
400566,359,458,368
400567,360,457,370
400568,360,460,369
400569,360,457,368
400570,361,458,371
400571,361,460,370
400572,360,457,371
400573,361,461,372
400574,362,462,371
400575,362,460,372
400576,361,461,372
400577,363,463,372
400578,364,464,371
400579,362,461,371
400580,362,464,371
400581,362,463,372
400582,361,458,371
400583,360,460,370
400584,360,460,370
400585,360,459,371
400586,360,459,368
400587,360,459,370
400588,361,460,371
400589,360,460,370
400590,361,458,370
400591,362,460,372
400592,362,460,371
400593,363,462,372
400594,362,463,370
400595,361,464,371
400596,363,463,369
400597,362,464,372
400598,360,463,371
400599,361,467,372
400600,362,464,369
400601,362,462,368
400602,360,461,369
400603,361,460,368
400604,359,457,368
400605,360,460,369
400606,360,460,370
400607,360,458,369
400608,359,459,370
400609,358,460,371
400610,358,460,370
400611,359,459,370
400612,361,461,371
400613,363,462,372
400614,362,463,373
400615,362,462,372
400616,362,461,373
400617,362,464,372
400618,362,464,372
400619,362,464,372
400620,360,464,371
400621,362,462,372
400622,361,463,370
400623,361,462,369
400624,360,459,369
400625,361,459,369
400626,361,459,369
400627,360,459,371
400628,360,458,370
400629,362,461,370
400630,360,460,371
400631,361,460,369
400632,362,461,371
400633,363,463,371
400634,364,463,373
400635,363,464,373
400636,362,463,372
400637,362,466,372
400638,363,463,373
400639,363,464,372
400640,363,462,371
400641,362,463,369
400642,361,464,369
400643,362,462,371
400644,360,461,369
400645,360,456,369
400646,360,460,369
400647,360,459,369
400648,360,460,371
400649,360,460,371
400650,360,460,370
400651,362,459,371
400652,361,460,373
400653,362,461,372
400654,361,463,370
400655,362,463,371
400656,363,464,373
400657,363,464,371
400658,362,464,370
400659,361,463,370
400660,360,463,372
400661,362,463,370
400662,361,462,370
400663,359,461,370
400664,359,461,369
400665,360,460,370
400666,359,457,369
400667,360,460,370
400668,360,460,369
400669,360,458,370
400670,360,460,370
400671,361,461,371
400672,362,459,371
400673,362,460,372
400674,362,462,372
400675,361,463,371
400676,362,463,372
400677,363,464,370
400678,362,464,370
400679,362,463,371
400680,361,461,369
400681,361,461,370
400682,362,463,370
400683,359,461,369
400684,361,460,369
400685,360,458,370
400686,359,460,371
400687,359,459,370
400688,360,458,369
400689,360,459,372
400690,361,460,371
400691,360,460,371
400692,361,461,370
400693,360,459,371
400694,362,461,370
400695,361,463,371
400696,361,463,372
400697,363,463,372
400698,364,463,371
400699,363,463,370
400700,361,463,368
400701,361,463,369
400702,360,461,368
400703,360,460,370
400704,360,460,370
400705,360,459,370
400706,360,458,369
400707,360,457,369
400708,360,460,368
400709,360,459,371
400710,360,460,370
400711,361,459,372
400712,361,460,372
400713,361,460,371
400714,362,462,372
400715,362,463,371
400716,361,462,371
400717,362,462,369
400718,362,463,370
400719,362,459,372
400720,362,461,370
400721,362,461,368
400722,360,462,367
400723,359,461,368
400724,361,460,369
400725,361,461,370
400726,359,458,369
400727,358,459,369
400728,358,458,369
400729,360,459,370
400730,360,459,372
400731,359,459,371
400732,360,460,371
400733,361,459,371
400734,361,462,372
400735,361,461,371
400736,362,460,372
400737,360,463,369
400738,363,462,371
400739,361,461,372
400740,362,463,370
400741,362,463,369
400742,360,462,370
400743,360,462,370
400744,361,461,369
400745,359,461,367
400746,360,460,370
400747,360,460,369
400748,360,459,369
400749,360,459,369
400750,359,460,370
400751,362,460,372
400752,362,460,370
400753,362,461,371
400754,361,464,372
400755,363,463,372
400756,364,463,373
400757,362,463,372
400758,361,464,372
400759,361,461,370
400760,362,464,371
400761,361,462,370
400762,360,463,370
400763,361,460,370
400764,361,460,369
400765,359,458,368
400766,360,461,370
400767,358,458,367
400768,360,458,369
400769,359,458,370
400770,359,458,368
400771,360,458,370
400772,362,460,370
400773,362,462,372
400774,362,463,371
400775,361,464,372
400776,362,461,372
400777,361,464,372
400778,362,463,372
400779,362,463,372
400780,362,462,369
400781,361,464,371
400782,362,462,368
400783,360,459,368
400784,359,460,368
400785,360,457,368
400786,359,458,368
400787,360,459,369
400788,359,456,369
400789,360,458,370
400790,360,459,370
400791,362,461,371
400792,360,462,371
400793,360,463,372
400794,362,462,371
400795,362,462,371
400796,362,463,372
400797,362,463,372
400798,361,463,371
400799,362,461,370
400800,361,464,370
400801,360,458,370
400802,359,463,370
400803,361,459,370
400804,361,459,371
400805,361,461,369
400806,360,459,370
400807,360,456,369
400808,360,456,369
400809,361,459,369
400810,361,460,371
400811,360,456,370
400812,361,459,370
400813,362,460,370
400814,362,462,372
400815,362,462,371
400816,362,461,371
400817,362,462,372
400818,360,463,371
400819,362,462,371
400820,361,464,369
400821,360,461,369
400822,361,461,369
400823,361,459,369
400824,361,460,370
400825,361,458,370
400826,360,459,368
400827,358,459,367
400828,357,457,369
400829,358,459,370
400830,359,458,371
400831,359,461,369
400832,360,456,370
400833,361,462,371
400834,362,461,371
400835,361,462,370
400836,362,462,370
400837,360,462,372
400838,360,462,370
400839,361,463,371
400840,361,458,370
400841,360,461,369
400842,361,457,370
400843,360,461,368
400844,361,458,368
400845,360,461,369
400846,358,460,368
400847,359,456,369
400848,360,456,370
400849,359,459,369
400850,360,460,370
400851,361,459,369
400852,361,459,369
400853,360,461,371
400854,362,460,371
400855,361,461,370
400856,362,462,370
400857,362,462,370
400858,362,463,371
400859,360,458,371
400860,359,462,370
400861,360,461,369
400862,359,461,370
400863,359,458,369
400864,361,459,369
400865,359,459,369
400866,360,459,367
400867,359,458,369
400868,359,459,369
400869,361,459,368
400870,360,457,370
400871,359,459,370
400872,362,462,370
400873,362,461,372
400874,362,463,371
400875,361,464,371
400876,363,461,370
400877,361,462,369
400878,360,461,369
400879,362,463,369
400880,361,462,371
400881,361,458,369
400882,360,462,369
400883,361,461,370
400884,360,459,368
400885,360,459,369
400886,359,460,370
400887,360,457,370
400888,359,458,369
400889,360,457,369
400890,361,459,370
400891,361,459,371
400892,360,460,371
400893,363,462,371
400894,361,462,371
400895,362,460,372
400896,364,463,372
400897,362,463,371
400898,361,462,370
400899,362,463,369
400900,362,462,372
400901,362,460,370
400902,361,462,368
400903,359,461,368
400904,361,462,369
400905,360,461,369
400906,359,457,369
400907,359,459,369
400908,359,455,370
400909,361,459,370
400910,362,458,368
400911,359,458,372
400912,361,457,370
400913,359,461,370
400914,360,460,370
400915,360,462,371
400916,359,461,370
400917,360,461,371
400918,360,462,370
400919,361,462,370
400920,361,460,371
400921,361,458,370
400922,361,459,370
400923,359,460,368
400924,360,457,368
400925,360,460,368
400926,358,458,369
400927,358,459,369
400928,359,458,369
400929,359,457,369
400930,359,459,369
400931,361,458,370
400932,361,459,369
400933,360,460,371
400934,360,462,372
400935,359,461,371
400936,360,461,369
400937,360,463,369
400938,360,462,370
400939,361,461,369
400940,360,462,369
400941,361,462,369
400942,360,459,370
400943,359,461,367
400944,358,459,368
400945,358,455,368
400946,358,458,370
400947,359,458,367
400948,359,456,369
400949,359,458,370
400950,359,456,370
400951,358,458,370
400952,360,457,372
400953,361,464,371
400954,361,457,371
400955,361,462,371
400956,361,461,369
400957,361,459,370
400958,361,462,371
400959,360,463,371
400960,359,461,369
400961,360,462,370
400962,360,460,369
400963,360,460,369
400964,361,460,368
400965,358,458,367
400966,359,458,368
400967,360,457,369
400968,360,458,369
400969,357,457,368
400970,359,457,370
400971,360,458,371
400972,361,457,372
400973,360,461,372
400974,361,460,372
400975,359,462,371
400976,362,462,372
400977,360,463,370
400978,361,462,371
400979,362,461,368
400980,361,461,370
400981,361,460,370
400982,360,460,369
400983,360,461,370
400984,360,457,368
400985,359,460,369
400986,360,459,368
400987,359,459,370
400988,360,459,369
400989,361,459,369
400990,362,459,371
400991,361,459,369
400992,361,459,370
400993,361,459,371
400994,360,461,372
400995,360,462,372
400996,363,464,371
400997,362,461,371
400998,362,461,371
400999,361,464,371
401000,361,461,370
401001,361,459,369
401002,360,462,369
401003,361,461,369
401004,360,461,369
401005,360,461,367
401006,359,459,368
401007,360,458,369
401008,361,456,369
401009,362,458,369
401010,361,460,370
401011,361,460,370
401012,361,461,371
401013,361,461,372
401014,360,459,371
401015,362,463,373
401016,362,461,372
401017,363,462,371
401018,363,462,371
401019,362,462,369
401020,362,464,370
401021,361,463,368
401022,362,462,370
401023,362,461,368
401024,360,460,368
401025,361,459,369
401026,359,457,368
401027,360,460,369
401028,359,456,369
401029,360,460,370
401030,360,457,369
401031,360,460,369
401032,361,456,372
401033,361,461,371
401034,362,462,371
401035,362,461,371
401036,361,460,371
401037,361,465,370
401038,362,463,371
401039,363,460,371
401040,362,463,370
401041,361,461,371
401042,363,462,370
401043,359,459,369
401044,361,458,368
401045,358,460,369
401046,361,458,369
401047,358,460,370
401048,359,455,370
401049,361,460,370
401050,361,460,370
401051,361,460,371
401052,361,461,371
401053,361,461,372
401054,363,462,370
401055,362,461,371
401056,362,463,372
401057,362,461,371
401058,363,464,372
401059,362,464,371
401060,360,460,371
401061,362,463,370
401062,361,461,370
401063,361,463,369
401064,361,462,369
401065,361,460,370
401066,360,459,369
401067,361,460,368
401068,362,459,369
401069,362,458,368
401070,359,459,369
401071,361,461,370
401072,363,461,372
401073,361,462,370
401074,362,463,372
401075,363,462,371
401076,362,462,373
401077,363,465,371
401078,361,466,372
401079,363,462,372
401080,362,463,371
401081,362,464,371
401082,361,463,372
401083,360,456,371
401084,359,461,372
401085,362,461,370
401086,361,461,370
401087,362,459,369
401088,361,457,368
401089,360,463,370
401090,361,462,372
401091,362,461,371
401092,362,459,371
401093,360,462,372
401094,362,463,372
401095,362,467,373
401096,364,460,372
401097,364,462,372
401098,363,464,373
401099,361,465,372
401100,362,465,370
401101,362,464,371
401102,363,463,371
401103,360,464,370
401104,360,460,369
401105,360,463,368
401106,362,458,370
401107,361,458,371
401108,360,460,370
401109,360,459,371
401110,361,460,371
401111,363,461,370
401112,361,459,372
401113,362,461,371
401114,362,462,371
401115,363,462,372
401116,362,465,372
401117,362,465,372
401118,362,464,372
401119,363,465,372
401120,363,463,370
401121,362,466,372
401122,362,461,370
401123,361,461,371
401124,362,460,370
401125,361,460,370
401126,360,461,370
401127,361,460,370
401128,361,460,369
401129,360,460,371
401130,361,462,371
401131,361,460,371
401132,361,459,372
401133,361,462,372
401134,362,463,372
401135,363,465,372
401136,363,462,372
401137,362,463,374
401138,363,465,373
401139,362,463,373
401140,363,464,371
401141,362,464,372
401142,360,463,371
401143,362,461,371
401144,361,461,370
401145,361,458,369
401146,361,461,370
401147,360,460,371
401148,359,458,370
401149,361,462,370
401150,360,461,371
401151,361,461,372
401152,362,461,373
401153,362,463,371
401154,361,462,372
401155,363,461,374
401156,363,465,374
401157,363,465,372
401158,362,464,372
401159,362,463,372
401160,362,465,372
401161,363,463,369
401162,362,463,371
401163,363,460,371
401164,361,461,370
401165,360,462,370
401166,360,460,371
401167,360,459,371
401168,360,460,369
401169,361,459,371
401170,361,459,370
401171,360,459,371
401172,361,461,372
401173,362,463,371
401174,361,463,372
401175,363,463,373
401176,364,464,372
401177,362,463,372
401178,363,463,370
401179,364,464,372
401180,363,462,371
401181,361,463,372
401182,360,462,370
401183,362,458,370
401184,359,461,369
401185,360,456,370
401186,361,464,370
401187,360,459,369
401188,360,462,370
401189,360,460,370
401190,361,462,372
401191,361,460,372
401192,361,463,372
401193,362,462,372
401194,363,463,373
401195,363,464,372
401196,363,465,373
401197,362,466,373
401198,362,464,373
401199,363,462,373
401200,363,465,372
401201,361,461,371
401202,361,461,370
401203,362,463,371
401204,361,463,370
401205,361,461,370
401206,361,460,371
401207,359,459,371
401208,361,461,371
401209,361,461,370
401210,362,462,370
401211,364,461,370
401212,362,463,371
401213,363,463,371
401214,363,462,373
401215,364,462,373
401216,364,465,372
401217,363,463,373
401218,363,466,371
401219,363,466,371
401220,363,465,371
401221,361,463,373
401222,361,463,370
401223,361,462,370
401224,361,461,370
401225,360,461,369
401226,361,457,369
401227,361,462,369
401228,359,460,369
401229,361,459,369
401230,360,461,369
401231,361,461,371
401232,361,462,371
401233,362,464,371
401234,364,464,371
401235,362,461,372
401236,362,464,373
401237,363,464,372
401238,362,464,371
401239,364,464,371
401240,363,463,371
401241,361,463,370
401242,361,457,371
401243,361,462,371
401244,360,462,371
401245,361,460,371
401246,360,460,369
401247,362,459,371
401248,361,459,370
401249,360,463,371
401250,360,459,372
401251,360,463,372
401252,361,462,372
401253,362,464,372
401254,363,461,371
401255,361,464,374
401256,363,464,373
401257,363,464,372
401258,363,468,373
401259,362,463,374
401260,364,466,372
401261,361,462,372
401262,362,463,370
401263,363,460,369
401264,362,461,370
401265,363,461,369
401266,361,462,370
401267,361,461,370
401268,361,461,371
401269,361,458,371
401270,361,460,371
401271,361,462,371
401272,362,461,372
401273,362,464,373
401274,363,463,372
401275,363,464,372
401276,363,460,372
401277,363,462,372
401278,363,465,371
401279,363,464,372
401280,361,463,371
401281,363,463,372
401282,361,465,372
401283,361,462,369
401284,360,460,370
401285,360,461,370
401286,360,456,371
401287,360,460,371
401288,361,460,370
401289,361,460,369
401290,361,460,371
401291,362,460,372
401292,363,462,373
401293,362,463,371
401294,362,464,373
401295,363,465,374
401296,363,465,372
401297,362,463,372
401298,362,461,372
401299,364,464,372
401300,363,463,371
401301,361,463,371
401302,362,462,371
401303,361,462,372
401304,361,462,369
401305,361,461,370
401306,361,461,370
401307,359,460,371
401308,361,461,370
401309,361,462,371
401310,361,460,373
401311,361,461,372
401312,361,461,372
401313,361,462,372
401314,363,464,373
401315,363,463,373
401316,363,462,373
401317,364,466,374
401318,364,465,373
401319,363,460,372
401320,362,466,373
401321,363,464,371
401322,361,464,372
401323,362,463,370
401324,362,462,371
401325,362,461,371
401326,361,459,370
401327,362,460,370
401328,362,460,371
401329,361,460,371
401330,361,462,372
401331,361,461,372
401332,362,461,372
401333,362,461,372
401334,362,463,373
401335,362,461,372
401336,363,462,373
401337,363,465,372
401338,363,464,372
401339,363,464,372
401340,363,466,371
401341,361,463,371
401342,360,464,368
401343,360,462,369
401344,360,462,369
401345,360,460,370
401346,360,461,370
401347,359,461,369
401348,362,460,371
401349,361,460,371
401350,361,460,371
401351,363,462,370
401352,363,461,372
401353,364,463,371
401354,364,462,371
401355,363,463,372
401356,363,463,373
401357,363,464,372
401358,364,465,372
401359,363,464,372
401360,364,466,372
401361,363,462,372
401362,363,460,370
401363,362,463,370
401364,361,462,370
401365,360,460,370
401366,360,462,370
401367,361,460,369
401368,362,461,371
401369,361,460,371
401370,362,457,371
401371,361,462,371
401372,362,461,372
401373,362,460,372
401374,363,464,372
401375,361,465,374
401376,364,465,372
401377,363,464,372
401378,364,464,373
401379,363,464,373
401380,363,464,371
401381,362,463,370
401382,361,463,371
401383,363,461,371
401384,361,460,370
401385,361,461,371
401386,362,460,370
401387,361,460,370
401388,361,460,370
401389,361,459,371
401390,361,458,371
401391,362,463,371
401392,361,461,371
401393,363,462,371
401394,362,462,373
401395,364,463,373
401396,362,465,373
401397,364,465,374
401398,364,463,373
401399,363,465,372
401400,362,462,372
401401,362,465,372
401402,361,462,370
401403,361,462,370
401404,360,464,369
401405,361,461,371
401406,359,460,368
401407,360,458,370
401408,361,456,369
401409,361,460,370
401410,361,459,371
401411,360,457,370
401412,362,460,370
401413,361,461,372
401414,361,460,371
401415,364,463,370
401416,362,462,371
401417,362,462,371
401418,363,461,372
401419,361,465,371
401420,361,462,370
401421,363,463,372
401422,360,462,369
401423,360,461,368
401424,361,460,370
401425,360,460,369
401426,360,460,370
401427,360,458,369
401428,360,456,370
401429,359,459,370
401430,360,459,371
401431,360,458,371
401432,362,460,372
401433,361,461,370
401434,362,462,372
401435,361,460,371
401436,361,463,371
401437,361,460,370
401438,361,462,372
401439,362,463,371
401440,360,462,369
401441,361,462,371
401442,361,464,370
401443,360,463,369
401444,362,461,369
401445,359,458,367
401446,360,459,369
401447,360,460,370
401448,360,460,370
401449,358,459,370
401450,360,460,370
401451,361,458,370
401452,361,460,371
401453,362,461,370
401454,362,460,371
401455,362,462,371
401456,362,463,371
401457,361,460,371
401458,363,464,370
401459,362,462,370
401460,362,463,371
401461,361,464,370
401462,362,462,368
401463,362,461,370
401464,360,457,370
401465,360,462,369
401466,361,459,368
401467,360,459,368
401468,360,459,369
401469,359,460,370
401470,360,462,370
401471,360,460,369
401472,361,461,370
401473,362,457,371
401474,362,457,371
401475,361,463,372
401476,363,463,371
401477,362,463,371
401478,362,464,371
401479,362,464,371
401480,362,462,372
401481,361,461,371
401482,359,464,370
401483,360,460,369
401484,360,460,369
401485,359,459,370
401486,361,462,368
401487,359,461,368
401488,360,459,369
401489,361,460,369
401490,362,459,369
401491,361,459,370
401492,361,457,371
401493,361,461,372
401494,361,460,371
401495,362,464,371
401496,363,463,373
401497,362,463,372
401498,361,463,371
401499,362,465,371
401500,361,464,369
401501,361,463,369
401502,362,462,370
401503,361,461,369
401504,361,459,371
401505,360,460,369
401506,359,461,369
401507,362,459,369
401508,361,460,369
401509,361,462,369
401510,360,458,371
401511,363,461,370
401512,361,459,371
401513,360,462,371
401514,361,461,372
401515,362,463,372
401516,361,461,372
401517,361,462,372
401518,361,462,371
401519,361,463,371
401520,362,463,371
401521,361,460,370
401522,361,460,370
401523,361,462,369
401524,360,461,370
401525,361,457,369
401526,360,459,369
401527,360,460,370
401528,361,460,370
401529,360,457,368
401530,360,459,370
401531,361,460,371
401532,362,460,371
401533,361,462,371
401534,362,461,371
401535,363,462,372
401536,362,462,372
401537,363,463,371
401538,363,463,371
401539,361,464,370
401540,361,463,370
401541,360,460,372
401542,361,462,370
401543,361,460,370
401544,360,462,369
401545,360,461,369
401546,360,459,370
401547,361,460,369
401548,360,461,371
401549,361,461,370
401550,361,460,369
401551,361,461,371
401552,362,458,371
401553,361,461,371
401554,362,461,371
401555,362,464,371
401556,362,461,371
401557,363,460,372
401558,363,464,372
401559,362,464,372
401560,363,464,371
401561,362,463,371
401562,362,463,371
401563,361,462,369
401564,359,459,371
401565,361,460,368
401566,360,457,368
401567,359,459,369
401568,359,457,370
401569,362,460,370
401570,360,459,371
401571,361,457,371
401572,361,462,371
401573,362,460,372
401574,361,462,372
401575,363,463,372
401576,363,463,372
401577,362,464,372
401578,363,464,372
401579,361,463,371
401580,361,463,372
401581,361,462,371
401582,361,463,370
401583,361,461,370
401584,361,463,369
401585,360,461,369
401586,360,459,369
401587,360,459,372
401588,361,460,371
401589,359,457,371
401590,360,458,370
401591,362,458,371
401592,361,460,372
401593,360,462,371
401594,362,462,373
401595,363,463,372
401596,363,465,371
401597,362,462,372
401598,362,465,370
401599,361,464,371
401600,363,464,371
401601,363,462,373
401602,361,461,371
401603,362,461,371
401604,361,463,371
401605,362,462,369
401606,361,460,370
401607,360,460,370
401608,361,458,369
401609,359,461,371
401610,361,460,371
401611,361,460,370
401612,362,461,372
401613,362,461,373
401614,361,459,373
401615,364,464,372
401616,363,464,371
401617,363,464,371
401618,364,462,372
401619,364,466,373
401620,361,464,371
401621,360,463,371
401622,363,461,370
401623,360,460,371
401624,359,460,369
401625,362,461,370
401626,360,461,371
401627,359,459,371
401628,361,460,372
401629,361,461,371
401630,361,461,371
401631,362,459,371
401632,361,463,371
401633,363,462,371
401634,363,462,370
401635,362,463,372
401636,363,462,371
401637,362,465,373
401638,362,464,371
401639,362,464,371
401640,363,461,369
401641,362,463,370
401642,362,461,370
401643,361,463,370
401644,361,461,371
401645,360,462,369
401646,360,462,369
401647,361,461,369
401648,361,456,369
401649,360,460,369
401650,360,458,370
401651,362,462,370
401652,361,462,371
401653,361,460,372
401654,363,461,372
401655,364,463,373
401656,362,460,372
401657,362,464,372
401658,362,464,372
401659,364,464,371
401660,361,464,371
401661,361,463,370
401662,362,462,370
401663,362,462,370
401664,360,462,368
401665,361,459,368
401666,359,461,369
401667,361,462,370
401668,359,459,370
401669,360,457,371
401670,361,462,371
401671,361,461,370
401672,362,461,371
401673,363,461,371
401674,363,462,374
401675,363,462,371
401676,361,464,372
401677,361,461,371
401678,363,464,370
401679,361,463,372
401680,361,463,372
401681,360,460,370
401682,362,463,371
401683,361,463,369
401684,361,460,371
401685,364,462,372
401686,361,460,371
401687,361,458,370
401688,361,458,370
401689,361,460,370
401690,361,463,369
401691,360,461,371
401692,361,461,372
401693,361,461,371
401694,362,464,372
401695,363,463,371
401696,363,463,371
401697,364,464,372
401698,363,462,371
401699,362,465,372
401700,362,461,373
401701,362,465,371
401702,362,463,370
401703,361,459,370
401704,360,460,370
401705,361,461,370
401706,361,461,368
401707,361,461,367
401708,360,461,370
401709,360,460,370
401710,360,459,370
401711,362,459,370
401712,363,461,371
401713,363,460,372
401714,362,461,374
401715,362,462,373
401716,361,462,374
401717,363,464,372
401718,363,463,372
401719,363,464,372
401720,363,464,372
401721,362,461,370
401722,361,464,370
401723,360,462,371
401724,362,463,370
401725,361,460,370
401726,359,459,369
401727,358,459,370
401728,360,457,369
401729,361,460,370
401730,360,460,372
401731,360,460,370
401732,362,460,371
401733,361,462,371
401734,363,462,372
401735,361,461,371
401736,364,464,372
401737,362,464,372
401738,361,463,371
401739,361,463,370
401740,362,465,369
401741,362,463,371
401742,360,464,369
401743,361,462,369
401744,359,461,369
401745,361,462,370
401746,361,459,369
401747,361,462,369
401748,361,458,369
401749,360,461,370
401750,361,459,371
401751,362,460,369
401752,361,461,371
401753,363,460,372
401754,362,464,372
401755,363,463,373
401756,363,463,373
401757,364,463,371
401758,364,464,371
401759,363,465,372
401760,361,463,371
401761,360,461,370
401762,362,463,371
401763,361,462,370
401764,361,462,370
401765,359,459,369
401766,361,459,370
401767,359,461,369
401768,361,459,370
401769,360,459,369
401770,362,460,371
401771,361,458,371
401772,361,460,372
401773,362,461,372
401774,363,461,372
401775,362,461,371
401776,363,464,372
401777,362,462,371
401778,362,463,372
401779,362,465,372
401780,363,463,371
401781,362,463,372
401782,361,461,371
401783,362,461,372
401784,361,462,371
401785,360,461,370
401786,360,461,368
401787,361,461,370
401788,361,459,369
401789,362,460,370
401790,361,460,371
401791,361,461,371
401792,361,460,371
401793,362,462,371
401794,363,459,371
401795,361,463,372
401796,362,463,372
401797,361,465,371
401798,362,464,373
401799,363,465,372
401800,361,463,371
401801,363,462,371
401802,361,464,369
401803,360,463,370
401804,361,461,369
401805,361,461,370
401806,359,461,369
401807,361,461,370
401808,361,458,370
401809,360,458,371
401810,361,460,371
401811,362,461,371
401812,363,460,373
401813,364,461,373
401814,362,458,371
401815,363,465,371
401816,363,462,373
401817,363,464,372
401818,363,463,372
401819,363,463,371
401820,362,465,372
401821,361,464,370
401822,362,462,371
401823,361,459,371
401824,362,459,370
401825,359,461,370
401826,360,459,370
401827,360,460,369
401828,360,458,370
401829,361,458,370
401830,361,462,372
401831,360,462,370
401832,363,460,372
401833,362,462,373
401834,364,458,372
401835,361,464,371
401836,361,463,373
401837,364,464,374
401838,363,464,372
401839,363,463,372
401840,361,464,371
401841,363,460,371
401842,361,463,369
401843,361,463,371
401844,361,459,370
401845,359,461,370
401846,361,461,369
401847,360,459,369
401848,359,458,369
401849,361,461,369
401850,361,461,371
401851,361,461,370
401852,361,461,371
401853,362,459,371
401854,362,462,372
401855,362,462,371
401856,363,464,371
401857,362,460,372
401858,363,465,372
401859,364,462,372
401860,362,461,371
401861,362,462,370
401862,362,461,371
401863,361,464,369
401864,361,460,371
401865,360,458,370
401866,362,461,369
401867,362,461,370
401868,360,460,371
401869,361,458,370
401870,361,461,371
401871,362,461,371
401872,361,459,371
401873,362,463,371
401874,362,464,372
401875,362,462,374
401876,363,463,372
401877,363,463,371
401878,363,463,370
401879,362,460,371
401880,362,466,370
401881,362,463,370
401882,361,463,370
401883,361,464,370
401884,362,459,371
401885,361,461,370
401886,360,460,370
401887,362,459,370
401888,362,461,370
401889,361,456,372
401890,361,461,370
401891,361,460,372
401892,361,461,371
401893,361,461,373
401894,363,461,372
401895,361,464,372
401896,361,464,371
401897,362,462,372
401898,363,463,372
401899,362,460,372
401900,361,465,372
401901,362,464,373
401902,361,460,371
401903,361,459,369
401904,360,463,370
401905,360,461,370
401906,362,459,370
401907,360,462,369
401908,361,458,371
401909,361,460,371
401910,361,461,372
401911,362,460,370
401912,362,462,372
401913,362,462,372
401914,362,460,372
401915,362,461,372
401916,363,462,373
401917,363,464,371
401918,362,464,372
401919,362,464,372
401920,362,464,371
401921,362,464,371
401922,362,464,371
401923,363,461,369
401924,362,464,370
401925,360,463,370
401926,361,462,369
401927,361,459,370
401928,360,460,371
401929,361,460,371
401930,361,461,371
401931,362,457,371
401932,362,459,372
401933,362,457,371
401934,362,461,373
401935,364,464,373
401936,363,461,372
401937,363,464,373
401938,363,463,371
401939,362,464,372
401940,361,464,370
401941,362,463,369
401942,361,462,370
401943,361,462,370
401944,361,461,370
401945,360,460,369
401946,361,461,369
401947,361,461,370
401948,361,460,370
401949,361,464,369
401950,361,460,371
401951,362,459,369
401952,361,461,372
401953,362,462,372
401954,362,462,372
401955,363,463,372
401956,364,464,371
401957,364,464,372
401958,364,464,373
401959,363,465,372
401960,363,465,371
401961,361,465,371
401962,362,462,371
401963,361,462,371
401964,361,462,369
401965,361,460,370
401966,360,458,369
401967,361,459,369
401968,360,458,370
401969,361,460,370
401970,361,459,371
401971,361,462,370
401972,362,460,372
401973,362,461,371
401974,361,461,372
401975,363,464,371
401976,363,464,371
401977,363,465,371
401978,363,463,372
401979,360,465,372
401980,362,464,370
401981,361,464,371
401982,363,464,368
401983,360,462,372
401984,361,462,371
401985,361,461,370
401986,361,460,369
401987,362,461,370
401988,360,458,369
401989,360,459,370
401990,361,458,371
401991,359,460,370
401992,361,461,370
401993,361,462,370
401994,362,463,371
401995,363,460,372
401996,362,462,370
401997,364,463,371
401998,362,464,371
401999,362,461,370
402000,362,465,371
402001,362,464,368
402002,361,463,369
402003,362,461,370
402004,361,460,370
402005,361,461,370
402006,359,460,369
402007,360,459,370
402008,359,460,370
402009,360,460,371
402010,360,458,370
402011,361,459,370
402012,360,460,371
402013,361,459,371
402014,363,458,371
402015,362,461,371
402016,363,463,371
402017,362,464,371
402018,362,461,371
402019,362,462,371
402020,361,462,372
402021,361,463,370
402022,360,464,371
402023,359,462,370
402024,359,461,369
402025,359,459,367
402026,359,462,369
402027,359,459,369
402028,359,456,370
402029,360,459,370
402030,359,460,371
402031,359,460,370
402032,362,460,370
402033,362,461,371
402034,361,459,371
402035,363,460,372
402036,362,463,372
402037,364,463,372
402038,362,463,372
402039,363,463,370
402040,362,463,370
402041,361,461,371
402042,362,461,370
402043,360,463,370
402044,359,461,370
402045,360,458,369
402046,361,459,371
402047,360,457,370
402048,361,461,369
402049,360,459,369
402050,361,460,370
402051,359,460,369
402052,359,460,371
402053,361,463,371
402054,361,461,371
402055,362,461,371
402056,362,460,372
402057,361,463,372
402058,363,464,372
402059,362,461,370
402060,361,464,371
402061,363,462,371
402062,361,463,371
402063,362,458,369
402064,359,461,370
402065,360,461,370
402066,360,460,369
402067,360,459,368
402068,358,455,370
402069,360,458,370
402070,360,457,369
402071,361,459,370
402072,361,461,372
402073,360,460,372
402074,362,462,372
402075,362,462,372
402076,364,463,371
402077,362,460,373
402078,361,462,371
402079,360,463,372
402080,362,464,371
402081,361,462,371
402082,360,463,371
402083,361,462,370
402084,360,463,371
402085,359,459,369
402086,359,459,369
402087,360,460,369
402088,360,461,370
402089,360,460,370
402090,360,459,369
402091,359,459,371
402092,360,460,371
402093,362,459,373
402094,361,462,371
402095,363,463,372
402096,363,463,372
402097,362,461,372
402098,363,462,372
402099,362,462,372
402100,362,463,371
402101,361,461,370
402102,360,462,369
402103,362,461,370
402104,360,457,369
402105,359,457,370
402106,358,461,370
402107,360,457,370
402108,361,460,369
402109,360,462,370
402110,360,457,371
402111,359,459,370
402112,359,460,371
402113,361,459,371
402114,360,462,372
402115,361,462,374
402116,361,462,372
402117,363,463,372
402118,364,464,373
402119,362,464,372
402120,362,463,370
402121,361,461,369
402122,362,461,370
402123,360,461,370
402124,360,460,371
402125,359,460,370
402126,360,460,371
402127,359,457,370
402128,359,458,369
402129,360,459,369
402130,359,460,368
402131,360,460,371
402132,361,459,370
402133,362,459,370
402134,361,462,371
402135,362,459,371
402136,362,463,371
402137,363,463,372
402138,362,465,371
402139,362,464,370
402140,361,461,370
402141,361,464,370
402142,361,462,370
402143,361,461,369
402144,360,460,369
402145,362,460,369
402146,361,461,369
402147,360,460,369
402148,360,460,370
402149,359,458,369
402150,358,459,370
402151,360,459,369
402152,361,457,370
402153,359,462,371
402154,362,460,372
402155,361,461,370
402156,362,463,372
402157,360,463,373
402158,361,464,371
402159,362,463,370
402160,361,464,370
402161,362,465,369
402162,362,463,369
402163,360,460,368
402164,359,460,368
402165,360,462,369
402166,359,457,370
402167,358,460,369
402168,360,460,369
402169,360,459,369
402170,361,459,370
402171,359,455,371
402172,360,460,371
402173,361,460,370
402174,363,461,371
402175,360,460,372
402176,361,462,369
402177,361,462,372
402178,361,465,372
402179,363,464,373
402180,361,464,371
402181,362,463,372
402182,362,463,371
402183,361,463,369
402184,358,462,369
402185,362,458,371
402186,360,460,369
402187,359,458,368
402188,359,458,369
402189,360,459,369
402190,360,458,369
402191,361,460,370
402192,361,459,370
402193,360,463,371
402194,362,462,373
402195,362,461,371
402196,363,463,373
402197,363,461,370
402198,362,464,372
402199,361,460,371
402200,361,463,370
402201,361,457,369
402202,361,461,371
402203,360,463,370
402204,361,459,369
402205,359,460,369
402206,360,459,369
402207,359,460,369
402208,360,462,370
402209,361,459,369
402210,361,458,369
402211,360,460,371
402212,360,461,371
402213,361,457,370
402214,361,463,372
402215,361,463,371
402216,362,462,373
402217,362,464,369
402218,362,463,371
402219,362,463,371
402220,361,462,370
402221,362,464,370
402222,361,463,372
402223,360,460,371
402224,360,461,370
402225,360,458,369
402226,358,459,369
402227,359,457,368
402228,359,458,369
402229,360,459,369
402230,360,459,369
402231,358,458,371
402232,361,458,370
402233,361,460,370
402234,362,462,370
402235,360,461,370
402236,362,460,371
402237,361,462,371
402238,361,463,372
402239,362,461,371
402240,361,462,370
402241,360,463,370
402242,359,459,369
402243,361,459,370
402244,361,462,369
402245,360,458,369
402246,360,461,369
402247,359,455,367
402248,360,458,368
402249,360,457,369
402250,361,457,369
402251,360,460,371
402252,363,457,371
402253,361,461,371
402254,362,461,371
402255,361,461,372
402256,361,461,372
402257,361,464,372
402258,362,461,372
402259,361,462,371
402260,362,462,372
402261,361,461,368
402262,361,462,370
402263,360,459,369
402264,359,460,369
402265,360,458,369
402266,359,460,369
402267,360,457,369
402268,360,459,368
402269,360,460,369
402270,359,460,369
402271,360,458,370
402272,359,458,370
402273,362,460,371
402274,362,461,371
402275,361,464,372
402276,362,461,371
402277,361,461,371
402278,361,465,372
402279,363,464,371
402280,361,462,371
402281,362,462,371
402282,362,462,369
402283,362,461,368
402284,360,461,370
402285,360,459,369
402286,359,458,368
402287,359,459,370
402288,360,458,369
402289,361,458,370
402290,361,455,369
402291,362,458,369
402292,361,462,371
402293,360,459,370
402294,360,461,371
402295,363,464,371
402296,361,461,369
402297,363,462,371
402298,362,463,371
402299,360,462,371
402300,361,460,371
402301,361,463,370
402302,360,462,370
402303,361,464,369
402304,360,460,369
402305,359,459,369
402306,360,457,369
402307,360,460,369
402308,360,458,368
402309,359,456,369
402310,359,461,371
402311,361,459,371
402312,362,459,369
402313,361,460,369
402314,363,461,370
402315,361,461,371
402316,362,463,371
402317,361,463,371
402318,361,462,371
402319,360,461,371
402320,362,459,371
402321,362,462,372
402322,362,463,371
402323,359,461,370
402324,360,462,369
402325,361,460,368
402326,360,459,369
402327,360,458,369
402328,359,459,368
402329,360,460,371
402330,360,460,369
402331,361,458,369
402332,361,459,370
402333,361,458,369
402334,362,460,370
402335,361,461,370
402336,362,463,372
402337,363,463,373
402338,362,461,372
402339,362,465,371
402340,362,461,370
402341,361,458,370
402342,360,462,370
402343,360,462,371
402344,361,460,369
402345,358,461,369
402346,359,460,367
402347,359,457,369
402348,360,459,369
402349,361,456,369
402350,360,459,371
402351,360,460,368
402352,360,456,371
402353,361,460,371
402354,361,461,371
402355,361,462,372
402356,362,463,371
402357,362,464,372
402358,361,461,372
402359,362,465,372
402360,361,463,370
402361,362,463,369
402362,361,463,370
402363,360,461,370
402364,360,461,369
402365,359,460,368
402366,360,460,368
402367,359,459,368
402368,358,459,369
402369,361,458,368
402370,359,460,369
402371,361,461,370
402372,360,459,371
402373,361,460,370
402374,359,461,372
402375,360,461,371
402376,361,460,370
402377,362,463,371
402378,363,463,372
402379,362,464,370
402380,362,463,369
402381,361,463,369
402382,361,462,369
402383,361,462,370
402384,361,458,368
402385,361,461,369
402386,359,458,369
402387,360,457,370
402388,361,459,369
402389,360,460,369
402390,361,458,370
402391,360,458,370
402392,360,459,371
402393,361,458,371
402394,362,460,372
402395,361,460,373
402396,362,461,370
402397,361,462,370
402398,362,463,372
402399,362,465,370
402400,361,463,371
402401,362,463,370
402402,360,461,369
402403,361,463,370
402404,361,460,368
402405,359,460,368
402406,360,458,368
402407,358,460,368
402408,360,456,369
402409,361,457,369
402410,359,459,368
402411,358,459,369
402412,360,459,370
402413,359,456,371
402414,361,461,370
402415,361,460,372
402416,362,461,372
402417,362,463,371
402418,362,462,371
402419,362,460,370
402420,361,463,372
402421,361,463,370
402422,360,459,370
402423,361,460,370
402424,360,461,369
402425,361,460,371
402426,361,457,367
402427,360,457,369
402428,361,461,370
402429,359,459,367
402430,361,459,369
402431,360,459,369
402432,360,461,370
402433,362,460,370
402434,362,459,372
402435,361,462,370
402436,362,462,371
402437,362,460,372
402438,361,462,371
402439,361,463,369
402440,361,462,370
402441,361,463,369
402442,360,461,370
402443,362,460,368
402444,359,461,369
402445,360,460,369
402446,359,460,368
402447,360,460,368
402448,360,458,368
402449,361,458,368
402450,359,456,369
402451,359,458,369
402452,359,460,371
402453,361,457,371
402454,361,461,371
402455,362,462,371
402456,362,462,371
402457,363,464,372
402458,362,462,371
402459,362,461,370
402460,362,463,371
402461,361,462,370
402462,359,462,369
402463,361,463,370
402464,360,462,370
402465,361,459,368
402466,360,460,370
402467,359,459,369
402468,361,459,370
402469,359,455,368
402470,360,458,369
402471,360,458,370
402472,360,457,370
402473,360,463,370
402474,363,461,371
402475,361,459,371
402476,361,460,372
402477,360,461,372
402478,360,463,371
402479,361,463,371
402480,362,464,371
402481,361,463,371
402482,361,464,370
402483,361,462,369
402484,360,460,369
402485,360,456,368
402486,361,459,370
402487,360,458,370
402488,360,461,369
402489,360,460,370
402490,362,460,370
402491,361,459,369
402492,361,460,371
402493,361,457,371
402494,362,459,370
402495,362,461,370
402496,361,463,372
402497,363,464,371
402498,362,464,371
402499,362,462,371
402500,360,465,371
402501,362,461,370
402502,362,463,371
402503,362,463,370
402504,361,461,368
402505,360,461,369
402506,360,458,369
402507,360,459,370
402508,361,458,370
402509,361,460,369
402510,359,459,369
402511,360,460,370
402512,360,460,369
402513,360,461,370
402514,359,461,371
402515,362,459,370
402516,362,464,372
402517,362,464,371
402518,360,461,371
402519,362,460,370
402520,362,463,372
402521,362,461,370
402522,360,461,369
402523,359,461,369
402524,360,458,369
402525,359,461,369
402526,359,460,370
402527,358,459,369
402528,360,460,368
402529,361,459,369
402530,360,455,369
402531,360,458,369
402532,360,459,369
402533,361,460,370
402534,361,459,371
402535,362,459,371
402536,363,456,370
402537,362,464,373
402538,361,459,371
402539,362,463,371
402540,362,461,371
402541,362,459,369
402542,360,461,368
402543,361,461,369
402544,362,458,368
402545,359,461,369
402546,359,458,369
402547,359,458,369
402548,361,455,367
402549,359,459,368
402550,359,458,369
402551,359,459,368
402552,360,460,370
402553,360,460,369
402554,361,460,369
402555,362,461,369
402556,361,464,372
402557,362,463,371
402558,362,463,371
402559,360,462,370
402560,361,463,370
402561,361,464,369
402562,360,461,370
402563,362,462,369
402564,361,460,369
402565,360,460,368
402566,359,461,369
402567,359,455,368
402568,360,458,368
402569,359,457,368
402570,360,459,370
402571,360,462,369
402572,361,460,370
402573,362,460,369
402574,362,460,371
402575,361,460,372
402576,362,460,372
402577,361,459,373
402578,360,464,371
402579,361,460,371
402580,361,464,370
402581,360,463,371
402582,362,460,370
402583,359,463,369
402584,360,462,369
402585,358,461,369
402586,359,460,370
402587,359,457,368
402588,361,458,370
402589,359,455,368
402590,361,458,368
402591,360,459,369
402592,361,456,371
402593,361,460,370
402594,359,462,371
402595,364,462,371
402596,360,463,371
402597,363,462,371
402598,362,464,372
402599,361,463,370
402600,362,463,371
402601,361,464,371
402602,362,463,372
402603,361,461,370
402604,360,460,368
402605,360,460,369
402606,359,460,367
402607,360,460,369
402608,361,458,368
402609,359,459,370
402610,360,459,371
402611,360,458,370
402612,361,459,369
402613,362,462,370
402614,362,461,370
402615,361,460,372
402616,363,461,370
402617,364,464,371
402618,361,463,371
402619,362,463,371
402620,361,461,370
402621,361,462,370
402622,359,463,370
402623,360,460,369
402624,361,459,370
402625,361,460,369
402626,360,457,367
402627,359,461,370
402628,359,458,369
402629,360,460,370
402630,360,459,371
402631,361,461,371
402632,361,461,371
402633,361,460,371
402634,361,463,371
402635,361,461,372
402636,360,461,371
402637,361,461,371
402638,361,464,372
402639,362,463,370
402640,362,461,370
402641,362,466,370
402642,361,461,369
402643,359,462,369
402644,360,463,370
402645,360,461,370
402646,360,461,369
402647,361,461,370
402648,360,459,369
402649,359,458,370
402650,360,458,370
402651,361,460,369
402652,359,459,371
402653,360,461,370
402654,361,457,372
402655,363,464,371
402656,363,464,371
402657,361,462,371
402658,361,464,372
402659,359,463,371
402660,361,460,371
402661,362,462,370
402662,360,464,369
402663,361,462,369
402664,360,458,371
402665,360,461,368
402666,359,456,368
402667,361,459,367
402668,360,459,370
402669,360,458,368
402670,360,460,370
402671,361,458,371
402672,361,461,371
402673,360,459,372
402674,360,461,369
402675,361,460,372
402676,361,462,370
402677,362,462,372
402678,360,462,371
402679,362,463,371
402680,363,463,372
402681,361,463,372
402682,362,460,371
402683,361,463,369
402684,361,462,371
402685,360,461,368
402686,359,459,369
402687,359,459,369
402688,359,459,369
402689,361,460,369
402690,360,458,369
402691,360,460,369
402692,360,460,371
402693,361,462,369
402694,361,461,371
402695,361,460,369
402696,362,463,371
402697,362,463,371
402698,362,462,371
402699,363,463,370
402700,362,462,371
402701,362,464,368
402702,362,462,371
402703,360,461,370
402704,359,461,368
402705,360,462,370
402706,360,460,369
402707,360,460,369
402708,360,459,370
402709,359,459,370
402710,360,458,369
402711,360,459,372
402712,362,458,371
402713,362,461,369
402714,362,460,372
402716,360,463,370
402717,362,463,371
402718,363,464,371
402719,363,461,372
402720,362,463,372
402721,361,462,371
402722,361,461,369
402722,361,462,370
402723,360,461,369
402724,360,459,369
402725,359,460,370
402726,360,460,369
402727,360,456,368
402728,360,458,370
402729,360,458,369
402730,359,460,369
402731,360,457,369
402732,360,457,368
402733,362,459,370
402734,363,462,371
402735,362,460,371
402736,362,461,369
402737,363,463,369
402738,362,462,371
402739,363,462,370
402740,360,461,370
402741,361,463,370
402742,361,463,371
402743,360,461,370
402744,361,462,369
402745,360,461,369
402746,358,458,367
402747,360,459,368
402748,360,457,370
402749,359,459,368
402750,360,459,370
402751,360,458,369
402752,361,462,372
402753,362,462,372
402754,360,462,369
402755,362,461,370
402756,362,462,369
402757,362,460,370
402758,362,462,371
402759,362,460,370
402760,362,462,371
402761,361,464,370
402762,360,462,370
402763,361,461,369
402764,360,459,369
402765,361,460,369
402766,360,460,368
402767,360,461,369
402768,359,458,369
402769,360,459,368
402770,361,458,369
402771,361,460,368
402772,362,460,370
402773,361,459,371
402774,362,458,370
402775,363,460,371
402776,361,462,373
402777,362,463,371
402778,360,463,371
402779,362,463,372
402780,361,465,371
402781,361,463,371
402782,360,462,372
402783,359,461,371
402784,361,461,369
402785,360,461,370
402786,359,459,370
402787,360,460,368
402788,360,459,370
402789,359,459,368
402790,360,459,370
402791,359,460,370
402792,359,461,371
402793,361,458,371
402794,362,462,370
402795,361,460,372
402796,359,463,371
402797,362,463,372
402798,362,463,371
402799,362,461,370
402800,361,461,369
402801,361,464,367
402802,361,464,369
402803,361,461,368
402804,360,458,370
402805,360,461,369
402806,359,460,369
402807,360,460,368
402808,359,459,370
402809,360,458,370
402810,360,457,369
402811,360,461,369
402812,360,459,370
402813,361,459,370
402814,361,461,371
402815,362,462,372
402816,361,462,370
402817,361,461,371
402818,361,462,371
402819,362,462,372
402820,362,466,372
402821,362,462,371
402822,362,462,371
402823,360,463,370
402824,361,460,368
402825,359,458,368
402826,361,463,369
402827,361,461,368
402828,360,457,368
402829,360,459,367
402830,362,460,370
402831,360,459,369
402832,361,459,370
402833,362,462,370
402834,362,462,371
402835,361,457,370
402836,359,460,372
402837,362,459,371
402838,363,460,370
402839,361,463,370
402840,363,461,371
402841,362,462,370
402842,360,462,369
402843,361,462,368
402844,360,460,369
402845,360,461,370
402846,360,459,369
402847,360,456,368
402848,359,459,368
402849,359,457,368
402850,360,458,370
402851,360,459,370
402852,360,460,370
402853,361,460,372
402854,361,459,371
402855,362,462,372
402856,362,463,372
402857,361,464,370
402858,362,464,372
402859,361,462,371
402860,361,464,370
402861,361,466,370
402862,362,463,369
402863,361,459,370
402864,361,457,368
402865,360,462,369
402866,360,459,368
402867,360,459,369
402868,361,459,368
402869,361,457,369
402870,360,460,368
402871,360,460,369
402872,360,460,371
402873,360,461,371
402874,361,459,372
402875,361,461,372
402876,363,462,372
402877,363,463,372
402878,361,461,372
402879,362,463,372
402880,362,463,371
402881,360,463,371
402882,361,463,371
402883,360,459,369
402884,362,463,368
402885,361,462,370
402886,361,461,370
402887,358,459,370
402888,361,459,369
402889,359,457,370
402890,360,457,369
402891,361,456,369
402892,360,455,370
402893,361,458,369
402894,361,460,371
402895,362,459,370
402896,361,461,371
402897,363,463,372
402898,363,462,369
402899,361,464,370
402900,359,462,371
402901,361,460,372
402902,360,462,370
402903,360,461,369
402904,359,461,370
402905,359,460,370
402906,360,456,367
402907,359,460,368
402908,360,459,368
402909,360,455,368
402910,360,459,370
402911,359,457,369
402912,361,457,371
402913,361,460,370
402914,361,460,371
402915,360,460,370
402916,359,462,371
402917,362,462,372
402918,361,461,370
402919,362,463,370
402920,362,463,370
402921,362,460,369
402922,360,462,370
402923,362,461,369
402924,361,459,370
402925,361,460,369
402926,359,459,370
402927,360,459,370
402928,360,458,368
402929,360,458,369
402930,358,454,370
402931,361,460,368
402932,360,457,369
402933,361,459,370
402934,362,460,370
402935,360,459,371
402936,361,461,372
402937,362,461,372
402938,363,461,370
402939,362,461,371
402940,360,462,369
402941,361,460,371
402942,361,462,371
402943,359,462,371
402944,359,460,370
402945,361,460,366
402946,361,457,368
402947,359,459,368
402948,359,460,369
402949,359,458,367
402950,359,458,367
402951,360,459,369
402952,359,459,370
402953,360,461,370
402954,361,460,373
402955,361,460,370
402956,362,458,371
402957,360,462,371
402958,363,462,371
402959,361,462,372
402960,362,462,370
402961,362,462,369
402962,361,462,370
402963,361,462,370
402964,360,460,369
402965,360,459,368
402966,359,459,368
402967,359,457,368
402968,360,458,368
402969,359,456,369
402970,360,459,369
402971,360,459,368
402972,360,459,370
402973,361,458,370
402974,362,461,371
402975,361,462,371
402976,362,462,371
402977,363,463,371
402978,360,463,371
402979,362,462,370
402980,360,463,370
402981,360,462,369
402982,362,464,370
402983,360,462,368
402984,362,459,370
402985,361,458,368
402986,360,461,367
402987,361,457,368
402988,359,459,368
402989,359,458,367
402990,358,461,370
402991,359,459,370
402992,359,460,370
402993,361,459,368
402994,361,461,371
402995,363,464,369
402996,363,462,371
402997,362,462,370
402998,361,463,370
402999,361,463,370
403000,362,461,372
403001,360,463,369
403002,361,462,371
403003,361,461,369
403004,360,462,369
403005,358,457,368
403006,358,462,368
403007,359,460,368
403008,359,461,369
403009,360,458,369
403010,359,460,368
403011,360,462,371
403012,361,458,370
403013,360,460,368
403014,361,459,370
403015,361,462,372
403016,361,462,371
403017,362,461,371
403018,361,463,370
403019,362,464,371
403020,362,460,370
403021,360,461,371
403022,361,463,369
403023,360,461,370
403024,361,462,369
403025,360,461,369
403026,359,459,369
403027,360,458,369
403028,358,457,368
403029,360,457,369
403030,360,460,370
403031,361,458,371
403032,361,460,369
403033,362,460,371
403034,362,459,370
403035,361,461,371
403036,361,461,372
403037,362,464,372
403038,362,464,371
403039,362,463,371
403040,361,463,371
403041,359,463,371
403042,359,462,370
403043,361,460,370
403044,359,461,368
403045,359,460,368
403046,359,460,370
403047,360,459,368
403048,360,458,367
403049,358,457,368
403050,359,459,367
403051,361,457,369
403052,360,460,368
403053,360,459,370
403054,361,460,370
403055,359,458,371
403056,362,463,369
403057,362,464,371
403058,361,464,372
403059,361,462,372
403060,361,463,371
403061,361,459,370
403062,362,463,371
403063,360,459,369
403064,360,460,369
403065,359,460,370
403066,360,460,370
403067,360,459,367
403068,360,458,368
403069,359,454,368
403070,359,459,369
403071,359,459,367
403072,360,459,372
403073,360,458,371
403074,361,459,370
403075,361,462,369
403076,360,462,370
403077,363,462,370
403078,362,462,370
403079,362,464,371
403080,362,459,369
403081,361,462,370
403082,362,462,370
403083,361,462,369
403084,361,460,370
403085,360,461,370
403086,360,459,368
403087,359,457,370
403088,360,459,369
403089,359,460,368
403090,359,458,369
403091,360,457,369
403092,360,458,370
403093,360,459,370
403094,359,459,370
403095,361,461,371
403096,361,461,371
403097,360,462,371
403098,362,463,371
403099,362,461,371
403100,362,463,371
403101,361,463,370
403102,361,462,371
403103,358,462,370
403104,360,459,369
403105,361,460,369
403106,359,461,369
403107,359,459,368
403108,359,455,367
403109,360,459,367
403110,361,458,369
403111,358,457,368
403112,360,455,369
403113,360,460,371
403114,360,458,370
403115,362,458,370
403116,362,461,370
403117,362,461,373
403118,362,462,370
403119,362,460,370
403120,361,463,368
403121,362,463,369
403122,361,462,369
403123,361,461,370
403124,360,460,369
403125,360,458,369
403126,359,459,367
403127,359,459,368
403128,360,459,368
403129,359,457,367
403130,359,454,369
403131,360,458,368
403132,359,458,370
403133,360,458,369
403134,361,460,370
403135,361,460,371
403136,361,461,371
403137,361,463,371
403138,361,461,369
403139,361,459,371
403140,360,463,369
403141,360,458,368
403142,361,460,368
403143,360,459,369
403144,360,461,370
403145,360,457,367
403146,359,462,367
403147,359,458,369
403148,359,460,367
403149,360,455,368
403150,358,457,368
403151,359,458,367
403152,360,456,368
403153,360,459,369
403154,361,459,370
403155,360,458,369
403156,362,461,371
403157,361,459,371
403158,362,458,370
403159,362,462,370
403160,361,462,370
403161,361,461,369
403162,359,461,368
403163,359,462,368
403164,360,457,369
403165,358,460,367
403166,359,459,367
403167,358,459,367
403168,358,458,367
403169,357,453,367
403170,359,458,368
403171,360,452,368
403172,360,458,368
403173,359,459,369
403174,359,459,371
403175,359,461,369
403176,361,460,370
403177,361,460,370
403178,361,459,369
403179,360,461,369
403180,361,457,370
403181,361,461,369
403182,360,461,368
403183,359,458,369
403184,360,456,369
403185,360,458,367
403186,360,458,369
403187,359,456,369
403188,359,457,369
403189,358,457,369
403190,359,458,368
403191,360,454,369
403192,359,459,369
403193,361,460,369
403194,361,459,370
403195,361,462,371
403196,360,460,370
403197,361,461,372
403198,362,459,370
403199,360,462,369
403200,362,463,370
403201,361,463,370
403202,360,462,370
403203,359,461,370
403204,359,460,368
403205,360,458,368
403206,359,458,368
403207,360,456,368
403208,359,459,368
403209,359,455,369
403210,359,458,370
403211,359,458,370
403212,359,458,370
403213,359,457,369
403214,361,456,370
403215,361,461,370
403216,360,461,370
403217,360,460,372
403218,362,461,370
403219,361,462,371
403220,361,462,371
403221,360,459,369
403222,360,458,368
403223,360,460,370
403224,360,459,369
403225,359,459,368
403226,359,459,368
403227,359,455,367
403228,358,457,368
403229,358,457,367
403230,359,455,367
403231,359,456,368
403232,361,453,368
403233,358,459,369
403234,359,460,368
403235,361,460,369
403236,360,462,367
403237,360,463,370
403238,361,460,369
403239,361,461,368
403240,360,462,369
403241,361,462,369
403242,359,460,368
403243,360,461,368
403244,360,457,370
403245,360,457,367
403246,359,456,368
403247,359,458,368
403248,360,457,366
403249,360,455,368
403250,359,457,369
403251,358,457,368
403252,359,458,369
403253,360,458,370
403254,360,460,371
403255,361,460,370
403256,362,460,370
403257,361,462,369
403258,361,462,370
403259,361,459,370
403260,360,458,371
403261,359,462,371
403262,360,461,369
403263,359,461,369
403264,359,460,368
403265,359,459,368
403266,359,456,369
403267,359,458,367
403268,359,458,369
403269,361,457,367
403270,360,457,368
403271,360,457,368
403272,361,456,369
403273,360,458,368
403274,361,460,369
403275,361,458,370
403276,361,461,369
403277,361,461,369
403278,361,459,370
403279,360,461,369
403280,361,461,370
403281,360,462,369
403282,359,460,370
403283,359,460,368
403284,359,455,368
403285,360,460,368
403286,359,458,367
403287,357,458,366
403288,360,459,368
403289,359,458,367
403290,359,455,369
403291,359,457,368
403292,360,458,370
403293,360,458,369
403294,361,459,370
403295,360,461,371
403296,359,461,371
403297,361,461,371
403298,360,461,370
403299,361,462,371
403300,360,461,370
403301,359,461,370
403302,360,461,369
403303,360,459,371
403304,360,459,370
403305,360,460,370
403306,360,459,367
403307,360,458,369
403308,360,458,368
403309,360,458,369
403310,359,457,369
403311,360,458,370
403312,360,459,370
403313,361,459,370
403314,361,461,372
403315,361,460,372
403316,361,461,369
403317,361,462,372
403318,360,463,369
403319,362,459,371
403320,362,461,371
403321,360,460,371
403322,361,461,369
403323,360,459,369
403324,361,460,368
403325,359,456,367
403326,360,458,369
403327,360,457,367
403328,357,458,367
403329,357,457,369
403330,358,459,368
403331,359,458,367
403332,360,457,371
403333,360,457,370
403334,360,458,370
403335,361,461,370
403336,361,462,370
403337,362,464,371
403338,361,462,370
403339,361,462,371
403340,360,462,370
403341,361,460,371
403342,361,462,369
403343,361,460,369
403344,362,461,370
403345,360,460,370
403346,359,456,370
403347,360,458,367
403348,360,456,367
403349,360,460,368
403350,361,459,368
403351,360,458,368
403352,361,457,369
403353,361,461,370
403354,359,461,369
403355,361,460,370
403356,361,462,370
403357,362,464,371
1742211644755,NEW REP,,
403358,362,463,371
403359,363,460,371
403360,361,464,371
403361,362,463,370
403362,361,462,370
403363,361,461,371
403364,362,462,371
403365,361,462,369
403366,361,460,370
403367,359,460,367
403368,359,461,368
403369,361,459,370
403370,360,459,368
403371,360,461,370
403372,360,460,369
403373,362,462,371
403374,362,461,372
403375,363,463,373
403376,361,463,372
403377,363,464,371
403378,364,463,371
403379,363,465,373
403380,363,466,372
403381,362,462,371
403382,361,462,371
403383,361,463,371
403384,362,463,370
403385,362,461,369
403386,360,460,369
403387,360,461,371
403388,361,460,371
403389,360,458,368
403390,361,459,369
403391,360,460,372
403392,361,460,371
403393,362,460,372
403394,361,461,371
403395,361,463,370
403396,362,463,371
403397,362,462,372
403398,360,465,371
403399,362,464,372
403400,363,463,371
403401,361,463,372
403402,360,461,369
403403,362,462,370
403404,361,460,370
403405,360,459,369
403406,360,461,370
403407,361,459,369
403408,360,459,367
403409,361,460,369
403410,361,460,370
403411,361,460,372
403412,361,461,370
403413,362,460,369
403414,361,461,372
403415,362,462,372
403416,362,463,372
403417,364,464,371
403418,364,466,372
403419,360,463,372
403420,362,464,371
403421,362,464,371
403422,361,462,371
403423,362,464,369
403424,360,463,370
403425,361,462,369
403426,361,460,368
403427,359,459,369
403428,361,459,370
403429,361,460,369
403430,360,458,369
403431,361,459,369
403432,361,461,370
403433,361,461,370
403434,362,461,369
403435,361,463,371
403436,362,462,371
403437,363,464,369
403438,362,463,371
403439,362,464,372
403440,362,463,371
403441,363,463,372
403442,361,463,371
403443,361,463,371
403444,362,461,371
403445,361,459,371
403446,359,461,368
403447,359,460,370
403448,359,461,371
403449,359,459,370
403450,359,459,370
403451,361,459,370
403452,360,459,369
403453,361,459,371
403454,363,460,372
403455,362,459,371
403456,363,462,372
403457,363,464,372
403458,363,463,372
403459,362,464,372
403460,364,465,372
403461,363,462,370
403462,361,462,370
403463,361,462,371
403464,361,464,370
403465,360,460,369
403466,360,461,370
403467,362,461,370
403468,360,461,369
403469,360,460,370
403470,362,460,370
403471,361,460,370
403472,359,461,370
403473,360,459,370
403474,362,461,371
403475,361,462,372
403476,362,463,371
403477,362,463,372
403478,363,465,372
403479,362,465,371
403480,363,463,373
403481,364,465,371
403482,363,465,372
403483,362,466,371
403484,362,466,372
403485,361,462,371
403486,362,463,371
403487,362,460,370
403488,362,461,371
403489,361,461,370
403490,362,462,370
403491,363,460,369
403492,363,463,372
403493,363,461,372
403494,363,465,373
403495,364,463,373
403496,364,464,373
403497,365,467,372
403498,364,466,375
403499,363,466,374
403500,363,467,374
403501,363,468,374
403502,363,467,374
403503,365,469,373
403504,366,469,374
403505,364,467,375
403506,365,468,374
403507,364,468,373
403508,365,467,374
403509,365,464,374
403510,366,468,376
403511,367,469,375
403512,367,469,376
403513,367,466,376
403514,368,470,378
403515,369,470,376
403516,369,468,377
403517,369,473,379
403518,367,473,377
403519,368,472,378
403520,368,474,379
403521,368,472,378
403522,367,471,378
403523,366,469,375
403524,366,469,375
403525,366,467,376
403526,366,467,375
403527,364,464,374
403528,364,466,374
403529,364,464,375
403530,366,465,374
403531,364,466,374
403532,365,467,375
403533,365,468,376
403534,367,468,377
403535,366,470,377
403536,368,472,377
403537,369,473,379
403538,368,473,378
403539,368,473,378
403540,367,472,378
403541,368,473,376
403542,366,471,376
403543,367,469,375
403544,365,466,375
403545,365,467,375
403546,365,465,373
403547,363,464,372
403548,363,459,372
403549,363,460,372
403550,362,460,372
403551,362,461,370
403552,364,460,373
403553,363,462,372
403554,363,459,372
403555,364,463,371
403556,363,464,370
403557,363,464,371
403558,362,464,373
403559,361,464,373
403560,362,463,372
403561,362,463,371
403562,361,464,370
403563,361,464,370
403564,361,462,370
403565,359,461,370
403566,361,461,369
403567,360,458,368
403568,362,461,369
403569,360,461,369
403570,359,462,369
403571,363,463,371
403572,362,466,375
403573,363,465,374
403574,364,465,375
403575,366,467,375
403576,365,468,375
403577,367,470,376
403578,366,470,377
403579,367,468,376
403580,367,469,376
403581,366,469,376
403582,366,467,375
403583,364,467,375
403584,363,465,375
403585,364,464,374
403586,364,463,374
403587,364,466,374
403588,364,465,374
403589,364,465,374
403590,364,466,373
403591,364,466,375
403592,367,469,375
403593,366,470,377
403594,367,469,378
403595,369,472,378
403596,368,472,379
403597,369,473,380
403598,369,473,380
403599,369,475,380
403600,371,474,381
403601,370,479,381
403602,371,479,382
403603,372,481,381
403604,374,480,382
403605,373,480,383
403606,372,477,382
403607,373,479,383
403608,372,481,386
403609,374,480,384
403610,373,481,384
403611,376,481,386
403612,376,484,386
403613,376,483,386
403614,377,485,388
403615,378,486,389
403616,378,487,390
403617,377,486,389
403618,377,484,390
403619,378,486,388
403620,378,481,388
403621,377,482,386
403622,376,480,386
403623,373,479,381
403624,372,477,381
403625,371,473,380
403626,370,475,381
403627,370,474,381
403628,370,474,381
403629,373,478,384
403630,374,480,384
403631,375,479,385
403632,376,484,385
403633,376,484,387
403634,377,485,387
403635,376,484,389
403636,377,484,387
403637,375,482,387
403638,375,478,385
403639,373,473,383
403640,371,473,380
403641,370,470,380
403642,369,466,375
403643,366,467,375
403644,365,465,374
403645,363,462,373
403646,363,460,370
403647,365,465,372
403648,362,462,370
403649,362,463,372
403650,364,465,372
403651,364,467,376
403652,366,469,376
403653,368,472,377
403654,370,475,379
403655,371,477,382
403656,372,478,385
403657,374,476,384
403658,373,479,383
403659,372,478,383
403660,372,477,384
403661,372,476,381
403662,373,478,383
403663,371,478,381
403664,372,478,383
403665,372,479,384
403666,373,480,384
403667,372,477,382
403668,374,478,381
403669,372,477,383
403670,370,475,381
403671,371,476,381
403672,371,474,380
403673,371,474,382
403674,371,475,381
403675,371,476,380
403676,373,477,383
403677,373,476,384
403678,373,479,384
403679,373,479,382
403680,371,479,383
403681,373,479,381
403682,372,480,382
403683,373,477,382
403684,374,483,382
403685,373,484,384
403686,374,483,384
403687,376,482,386
403688,374,479,382
403689,373,477,381
403690,372,474,383
403691,373,474,382
403692,370,471,380
403693,368,469,379
403694,369,467,377
403695,367,468,377
403696,367,467,377
403697,368,470,376
403698,367,470,375
403699,367,472,377
403700,366,470,377
403701,367,472,376
403702,366,474,377
403703,369,473,377
403704,367,470,378
403705,368,472,377
403706,369,468,374
403707,367,468,375
403708,365,466,374
403709,366,463,376
403710,366,461,374
403711,364,459,372
403712,362,460,372
403713,365,460,373
403714,362,459,371
403715,362,459,371
403716,362,459,371
403717,361,462,373
403718,361,463,372
403719,360,462,369
403720,362,462,370
403721,362,461,370
403722,361,464,369
403723,361,462,370
403724,361,462,370
403725,360,463,369
403726,360,462,369
403727,361,461,370
403728,361,461,371
403729,361,462,372
403730,362,459,371
403731,360,460,370
403732,361,459,370
403733,361,460,370
403734,361,461,371
403735,361,460,370
403736,362,460,370
403737,362,462,371
403738,362,462,372
403739,362,464,372
403740,362,463,373
403741,363,466,373
403742,361,464,371
403743,363,466,373
403744,364,468,371
403745,364,468,372
403746,362,468,373
403747,364,467,373
403748,365,468,373
403749,365,468,375
403750,366,467,375
403751,366,468,375
403752,364,468,376
403753,366,467,375
403754,366,468,375
403755,367,468,377
403756,367,469,377
403757,366,468,376
403758,366,468,377
403759,368,467,377
403760,367,464,376
403761,365,465,375
403762,364,465,373
403763,362,462,373
403764,361,461,371
403765,362,462,369
403766,363,462,370
403767,362,463,372
403768,362,463,371
403769,363,464,372
403770,363,466,372
403771,364,465,374
403772,364,465,376
403773,366,465,376
403774,367,469,374
403775,368,470,378
403776,369,471,379
403777,370,474,378
403778,369,471,378
403779,370,472,379
403780,369,472,377
403781,366,468,375
403782,365,466,373
403783,363,463,371
403784,361,462,370
403785,363,462,372
403786,362,463,372
403787,361,466,372
403788,362,460,372
403789,360,462,372
403790,362,460,370
403791,362,457,370
403792,360,453,371
403793,360,457,369
403794,358,455,367
403795,357,454,367
403796,355,455,367
403797,357,454,365
403798,356,453,365
403799,356,451,365
403800,355,452,364
403801,354,446,363
403802,354,450,363
403803,352,451,361
403804,353,454,361
403805,354,455,363
403806,355,459,365
403807,356,458,367
403808,358,459,366
403809,357,456,366
403810,357,452,366
403811,357,447,364
403812,354,447,363
403813,352,446,364
403814,352,443,362
403815,352,441,361
403816,351,445,362
403817,351,448,359
403818,352,448,360
403819,353,448,359
403820,350,449,360
403821,351,448,359
403822,350,446,357
403823,349,444,357
403824,348,442,355
403825,347,439,355
403826,346,440,356
403827,345,438,355
403828,346,434,356
403829,345,435,353
403830,345,435,353
403831,343,434,352
403832,343,436,354
403833,345,440,355
403834,346,442,355
403835,348,447,358
403836,349,449,360
403837,352,451,361
403838,353,449,362
403839,354,453,362
403840,352,453,363
403841,356,455,363
403842,356,455,364
403843,356,455,365
403844,356,457,365
403845,354,453,363
403846,353,450,363
403847,354,446,361
403848,350,442,360
403849,349,439,356
403850,347,436,355
403851,346,434,353
403852,344,434,353
403853,344,433,353
403854,343,433,352
403855,342,433,351
403856,343,434,353
403857,344,436,352
403858,344,438,353
403859,344,440,352
403860,344,438,352
403861,343,438,351
403862,344,439,352
403863,344,440,352
403864,345,439,354
403865,345,443,355
403866,348,447,356
403867,350,448,357
403868,352,448,360
403869,350,452,363
403870,354,449,362
403871,354,451,364
403872,354,449,363
403873,352,447,363
403874,351,444,361
403875,352,445,361
403876,349,444,361
403877,350,443,360
403878,350,441,359
403879,347,442,357
403880,347,441,356
403881,347,440,355
403882,346,439,354
403883,343,438,353
403884,345,438,351
403885,344,439,352
403886,344,439,353
403887,345,437,355
403888,345,439,353
403889,346,438,353
403890,346,438,356
403891,346,436,354
403892,346,438,355
403893,345,438,353
403894,347,437,354
403895,346,438,354
403896,346,439,354
403897,345,437,355
403898,345,438,355
403899,346,440,354
403900,344,441,355
403901,348,447,355
403902,350,447,359
403903,349,452,360
403904,354,455,363
403905,355,458,363
403906,355,458,363
403907,356,459,366
403908,358,459,368
403909,358,459,367
403910,358,459,369
403911,359,457,369
403912,358,457,368
403913,359,454,368
403914,359,454,368
403915,356,454,368
403916,357,453,367
403917,357,450,366
403918,357,452,365
403919,355,452,364
403920,355,454,363
403921,354,451,362
403922,353,452,362
403923,352,450,361
403924,352,448,361
403925,351,448,359
403926,349,444,358
403927,349,445,358
403928,351,445,358
403929,350,444,360
403930,350,448,359
403931,352,448,361
403932,353,447,362
403933,354,450,363
403934,353,451,364
403935,353,451,363
403936,356,450,364
403937,356,452,365
403938,355,453,365
403939,356,455,366
403940,356,459,365
403941,357,461,366
403942,359,463,367
403943,361,464,369
403944,360,462,371
403945,360,463,370
403946,360,460,369
403947,360,460,368
403948,358,460,370
403949,360,460,370
403950,360,457,371
403951,360,462,371
403952,362,460,371
403953,361,461,372
403954,362,462,371
403955,362,461,371
403956,362,463,372
403957,364,463,373
403958,363,462,373
403959,362,463,371
403960,362,460,370
403961,361,461,369
403962,359,460,369
403963,360,460,370
403964,361,462,369
403965,360,465,369
403966,361,467,370
403967,364,467,374
403968,365,470,374
403969,365,471,377
403970,369,475,379
403971,369,476,380
403972,371,476,379
403973,372,477,382
403974,372,481,382
403975,376,482,384
403976,376,479,386
403977,377,484,388
403978,376,481,385
403979,375,477,386
403980,374,480,384
403981,374,480,384
403982,373,481,382
403983,373,480,383
403984,373,477,383
403985,372,479,382
403986,371,477,381
403987,371,474,382
403988,370,468,379
403989,367,468,377
403990,366,464,375
403991,366,460,376
403992,365,462,375
403993,363,462,372
403994,365,463,373
403995,364,466,374
403996,365,465,375
403997,365,467,374
403998,364,470,375
403999,366,472,376
404000,367,468,376
404001,369,473,376
404002,369,475,378
404003,370,477,380
404004,370,475,380
404005,372,478,381
404006,371,475,380
404007,371,476,380
404008,371,476,381
404009,374,477,382
404010,375,483,383
404011,376,486,387
404012,378,487,389
404013,377,487,389
404014,378,487,390
404015,379,488,390
404016,380,486,391
404017,380,486,389
404018,379,480,388
404019,378,484,387
404020,375,485,387
404021,377,486,387
404022,377,485,389
404023,379,489,388
404024,377,488,389
404025,378,486,389
404026,378,491,387
404027,378,491,391
404028,379,488,388
404029,379,487,391
404030,380,487,392
404031,379,487,390
404032,380,485,389
404033,380,483,389
404034,380,484,390
404035,378,482,388
404036,376,480,388
404037,377,483,388
404038,377,485,387
404039,378,490,389
404040,380,490,390
404041,382,496,392
404042,382,497,393
404043,381,498,393
404044,382,496,394
404045,383,491,394
404046,383,492,393
404047,383,490,392
404048,382,489,392
404049,381,487,391
404050,381,489,392
404051,381,490,392
404052,383,490,393
404053,384,489,393
404054,383,493,394
404055,384,495,394
404056,385,493,395
404057,386,495,396
404058,388,498,398
404059,386,496,397
404060,386,497,396
404061,387,495,396
404062,385,491,394
404063,383,493,393
404064,382,488,391
404065,381,486,388
404066,378,484,389
404067,378,482,388
404068,377,483,387
404069,378,484,387
404070,377,485,387
404071,380,489,390
404072,381,491,392
404073,383,493,394
404074,388,497,395
404075,388,503,398
404076,390,505,401
404077,391,505,403
404078,393,509,404
404079,393,506,405
404080,392,504,404
404081,391,503,402
404082,390,501,402
404083,389,500,400
404084,388,499,398
404085,386,496,396
404086,384,493,396
404087,383,490,394
404088,384,488,394
404089,383,489,393
404090,382,488,393
404091,382,490,392
404092,380,489,391
404093,382,491,394
404094,383,489,394
404095,382,491,393
404096,383,492,392
404097,384,493,395
404098,382,493,393
404099,383,494,394
404100,382,490,394
404101,385,495,394
404102,384,497,392
404103,384,497,395
404104,385,502,396
404105,385,503,397
404106,387,498,399
404107,388,502,399
404108,388,499,399
404109,388,499,398
404110,389,499,398
404111,388,497,397
404112,387,496,398
404113,387,495,398
404114,388,498,399
404115,387,497,397
404116,387,496,398
404117,388,495,398
404118,386,495,396
404119,384,493,396
404120,383,493,395
404121,383,491,394
404122,382,491,392
404123,381,490,390
404124,380,486,392
404125,379,488,389
404126,379,490,390
404127,379,490,390
404128,382,490,392
404129,379,490,390
404130,379,487,392
404131,380,487,390
404132,381,488,391
404133,381,488,391
404134,382,490,393
404135,383,497,394
404136,386,505,398
404137,388,507,400
404138,393,512,404
404139,393,513,406
404140,395,516,407
404141,396,515,407
404142,395,512,407
404143,395,508,405
404144,392,503,403
404145,393,506,404
404146,393,505,403
404147,392,507,404
404148,394,507,404
404149,393,506,404
404150,391,504,402
404151,391,498,401
404152,390,498,401
404153,388,494,400
404154,390,496,399
404155,389,496,398
404156,387,500,399
404157,389,504,401
404158,389,507,401
404159,391,505,403
404160,390,508,403
404161,391,506,403
404162,391,506,400
404163,389,504,402
404164,390,502,401
404165,389,502,399
404166,388,502,400
404167,388,498,398
404168,386,496,397
404169,385,494,396
404170,384,490,396
404171,382,491,394
404172,384,488,395
404173,382,489,394
404174,382,493,395
404175,386,499,395
404176,388,503,399
404177,390,504,399
404178,392,507,402
404179,391,505,402
404180,391,505,401
404181,391,502,402
404182,390,502,400
404183,388,498,399
404184,386,495,397
404185,386,493,393
404186,384,493,394
404187,384,495,396
404188,385,498,395
404189,388,499,398
404190,389,503,400
404191,391,507,402
404192,391,506,404
404193,393,503,403
404194,390,501,401
404195,389,497,401
404196,388,494,399
404197,387,494,398
404198,385,491,394
404199,383,489,395
404200,383,490,391
404201,382,491,392
404202,382,492,393
404203,384,493,393
404204,383,495,391
404205,382,492,393
404206,382,494,393
404207,384,490,394
404208,383,492,393
404209,383,491,393
404210,382,491,394
404211,384,491,395
404212,385,491,394
404213,383,495,395
404214,386,496,397
404215,385,498,398
404216,389,502,400
404217,391,505,401
404218,391,508,403
404219,393,508,403
404220,394,510,405
404221,394,507,406
404222,393,507,404
404223,393,507,402
404224,392,505,402
404225,391,504,402
404226,390,503,401
404227,391,502,401
404228,393,502,402
404229,391,505,400
404230,391,504,403
404231,393,500,402
404232,393,503,401
404233,392,502,402
404234,392,501,401
404235,390,499,402
404236,390,496,401
404237,388,495,399
404238,387,494,398
404239,387,498,397
404240,385,497,396
404241,388,503,399
404242,390,510,400
404243,392,514,404
404244,394,518,404
404245,397,517,407
404246,398,518,410
404247,396,516,408
404248,398,515,409
404249,398,512,409
404250,398,506,407
404251,395,509,408
404252,395,508,405
404253,396,507,406
404254,395,507,405
404255,394,505,404
404256,393,504,404
404257,392,504,402
404258,391,499,401
404259,390,499,400
404260,389,493,399
404261,387,495,395
404262,387,499,396
404263,388,504,399
404264,390,504,400
404265,391,507,400
404266,389,506,400
404267,392,506,402
404268,390,506,403
404269,392,505,402
404270,392,503,402
404271,389,501,401
404272,390,501,401
404273,391,501,402
404274,391,502,402
404275,392,505,405
404276,392,506,403
404277,393,512,406
404278,395,512,407
404279,395,514,407
404280,396,514,408
404281,394,510,407
404282,395,510,404
404283,395,507,405
404284,392,504,403
404285,392,500,401
404286,388,501,400
404287,390,497,400
404288,389,498,399
404289,389,497,398
404290,389,498,400
404291,389,500,399
404292,389,501,399
404293,389,498,399
404294,390,499,400
404295,391,504,403
404296,390,508,404
404297,393,509,405
404298,393,512,406
404299,395,514,408
404300,396,513,406
404301,395,513,407
404302,396,512,408
404303,395,516,408
404304,397,518,408
404305,399,519,409
404306,398,522,412
404307,402,526,413
404308,402,524,415
404309,402,522,415
404310,402,515,412
404311,400,513,412
404312,399,510,411
404313,396,506,407
404314,394,500,403
404315,392,497,402
404316,389,492,400
404317,388,492,398
404318,384,489,393
404319,382,487,393
404320,380,485,391
404321,379,486,389
404322,377,484,388
404323,377,483,388
404324,377,486,386
404325,377,487,387
404326,377,486,387
404327,377,487,386
404328,379,489,389
404329,381,491,391
404330,382,494,393
404331,386,499,396
404332,385,501,399
404333,390,501,399
404334,392,508,403
404335,393,504,402
404336,393,507,404
404337,393,507,405
404338,394,511,404
404339,396,512,408
404340,395,514,407
404341,396,514,408
404342,393,513,406
404343,393,508,405
404344,392,503,403
404345,391,499,401
404346,387,496,399
404347,386,496,396
404348,386,492,396
404349,386,493,397
404350,387,498,398
404351,386,500,397
404352,387,500,400
404353,390,497,400
404354,390,500,401
404355,391,502,401
404356,390,502,402
404357,390,501,401
404358,389,500,400
404359,390,502,402
404360,391,507,402
404361,390,510,403
404362,393,511,404
404363,394,512,404
404364,396,514,405
404365,396,512,407
404366,395,511,407
404367,396,515,408
404368,398,517,409
404369,398,520,411
404370,402,524,414
404371,404,525,415
404372,405,525,418
404373,408,525,421
404374,404,523,418
404375,405,521,417
404376,404,518,415
404377,402,510,413
404378,399,508,411
404379,395,503,406
404380,393,501,403
404381,390,494,400
404382,387,493,396
404383,384,491,393
404384,382,489,391
404385,383,489,390
404386,380,487,390
404387,380,485,389
404388,382,488,389
404389,380,496,392
404390,383,498,395
404391,385,502,398
404392,388,501,400
404393,388,503,401
404394,390,502,401
404395,391,503,402
404396,391,501,401
404397,390,502,401
404398,392,502,402
404399,391,505,401
404400,392,508,403
404401,394,512,404
404402,394,515,406
404403,395,514,405
404404,394,511,406
404405,395,509,406
404406,394,507,405
404407,392,505,403
404408,392,504,402
404409,391,502,403
404410,390,501,404
404411,389,501,400
404412,391,502,402
404413,392,507,403
404414,394,509,405
404415,397,515,407
404416,397,518,409
404417,399,516,410
404418,397,515,410
404419,398,511,408
404420,396,506,405
404421,393,502,404
404422,388,500,400
404423,388,499,399
404424,388,497,397
404425,387,497,398
404426,387,498,398
404427,385,496,397
404428,386,496,396
404429,386,496,398
404430,386,496,397
404431,384,494,397
404432,386,493,397
404433,387,499,399
404434,389,502,401
404435,389,505,402
404436,390,507,403
404437,393,505,404
404438,395,508,404
404439,394,507,405
404440,394,509,405
404441,392,507,404
404442,391,506,403
404443,390,502,400
404444,389,495,399
404445,387,497,397
404446,385,491,396
404447,383,487,392
404448,382,486,391
404449,379,483,390
404450,380,485,389
404451,379,486,389
404452,381,489,391
404453,381,490,391
404454,382,493,394
404455,384,496,394
404456,384,495,393
404457,386,492,395
404458,381,492,394
404459,382,490,392
404460,382,492,394
404461,382,493,393
404462,381,493,393
404463,382,495,392
404464,382,495,394
404465,382,494,394
404466,382,493,394
404467,382,492,391
404468,382,488,392
404469,381,487,391
404470,380,485,391
404471,379,481,389
404472,380,483,390
404473,378,482,389
404474,377,484,388
404475,377,482,388
404476,378,484,388
404477,379,488,389
404478,381,491,392
404479,382,495,392
404480,382,496,395
404481,384,498,394
404482,384,496,393
404483,383,494,392
404484,382,490,393
404485,381,487,392
404486,379,483,390
404487,378,481,387
404488,379,481,386
404489,375,484,386
404490,377,487,387
404491,379,487,390
404492,380,487,391
404493,382,491,392
404494,381,489,393
404495,382,485,392
404496,381,486,390
404497,380,482,389
404498,378,482,387
404499,376,478,386
404500,374,478,384
404501,374,480,384
404502,373,481,384
404503,373,478,383
404504,373,479,383
404505,373,479,383
404506,372,478,381
404507,372,476,380
404508,370,471,381
404509,370,470,379
404510,368,470,378
404511,369,468,379
404512,369,467,379
404513,368,465,377
404514,366,464,376
404515,366,464,375
404516,366,466,376
404517,367,466,377
404518,367,470,377
404519,367,470,376
404520,368,471,377
404521,366,471,377
404522,367,469,377
404523,366,468,377
404524,368,471,377
404525,366,469,377
404526,365,468,375
404527,365,466,374
404528,364,463,373
404529,364,465,374
404530,364,463,373
404531,364,462,371
404532,362,459,373
404533,362,461,372
404534,363,462,372
404535,362,463,373
404536,363,462,372
404537,362,462,373
404538,362,463,372
404539,362,457,370
404540,361,458,369
404541,360,461,370
404542,359,459,369
404543,358,456,368
404544,358,454,366
404545,356,454,365
404546,355,453,364
404547,355,449,364
404548,353,449,363
404549,353,447,362
404550,351,447,360
404551,353,447,362
404552,352,447,361
404553,353,447,362
404554,354,451,364
404555,355,453,364
404556,355,455,366
404557,358,458,367
404558,359,460,368
404559,358,461,369
404560,359,459,368
404561,358,457,367
404562,358,457,366
404563,356,453,364
404564,354,451,363
404565,355,448,364
404566,353,447,360
404567,352,445,360
404568,350,444,359
404569,349,443,359
404570,350,443,357
404571,349,443,359
404572,351,442,360
404573,350,445,360
404574,352,448,361
404575,349,448,360
404576,352,449,361
404577,351,449,362
404578,352,449,362
404579,354,448,360
404580,350,444,360
404581,350,445,359
404582,349,445,358
404583,348,445,359
404584,348,446,358
404585,349,444,358
404586,348,443,356
404587,348,441,357
404588,347,440,357
404589,346,439,355
404590,346,438,356
404591,346,437,355
404592,345,438,354
404593,344,438,354
404594,346,437,354
404595,346,438,354
404596,346,438,354
404597,347,442,356
404598,347,440,357
404599,348,444,356
404600,348,445,357
404601,348,444,358
404602,349,442,358
404603,348,442,356
404604,345,439,354
404605,346,435,353
404606,345,436,352
404607,342,436,351
404608,341,432,350
404609,343,433,352
404610,343,434,351
404611,342,433,350
404612,343,434,352
404613,344,434,352
404614,344,436,350
404615,343,435,351
404616,344,438,353
404617,344,439,353
404618,345,439,352
404619,344,437,353
404620,345,442,352
404621,345,440,353
404622,344,437,353
404623,343,439,352
404624,344,438,352
404625,343,436,351
404626,343,436,352
404627,343,434,351
404628,343,433,351
404629,343,432,350
404630,342,434,351
404631,340,430,348
404632,340,426,348
404633,339,427,348
404634,340,429,348
404635,340,431,347
404636,339,430,350
404637,341,435,352
404638,342,436,352
404639,343,438,352
404640,341,434,352
404641,340,432,349
404642,340,429,347
404643,337,427,345
404644,336,423,344
404645,335,423,343
404646,333,421,342
404647,333,419,340
404648,332,417,339
404649,332,416,339
404650,331,417,340
404651,332,417,340
404652,330,418,340
404653,329,414,339
404654,331,416,340
404655,331,415,339
404656,331,417,337
404657,331,418,339
404658,332,417,339
404659,330,418,337
404660,330,418,337
404661,329,416,337
404662,328,416,336
404663,328,415,335
404664,326,413,336
404665,326,411,333
404666,325,412,332
404667,325,412,333
404668,325,411,334
404669,325,412,334
404670,326,410,334
404671,325,411,335
404672,327,410,334
404673,327,411,336
404674,328,411,336
404675,327,412,334
404676,327,414,335
404677,327,411,334
404678,326,410,336
404679,327,413,335
404680,325,414,333
404681,325,413,333
404682,326,413,333
404683,326,411,333
404684,325,410,332
404685,325,409,332
404686,323,409,329
404687,324,406,331
404688,325,406,331
404689,323,406,330
404690,324,403,331
404691,322,403,330
404692,322,401,330
404693,322,405,329
404694,323,405,330
404695,322,406,329
404696,324,406,331
404697,324,411,331
404698,325,410,333
404699,325,408,332
404700,326,411,333
404701,324,413,334
404702,326,413,333
404703,327,414,334
404704,325,409,333
404705,326,412,332
404706,325,413,333
404707,325,411,333
404708,325,409,332
404709,325,406,331
404710,325,407,330
404711,324,408,332
404712,325,409,332
404713,325,409,332
404714,324,408,333
404715,325,407,333
404716,324,407,332
404717,324,408,332
404718,324,405,331
404719,323,408,331
404720,323,404,330
404721,322,405,329
404722,322,404,327
404723,322,402,328
404724,320,403,327
404725,319,402,325
404726,319,400,325
404727,319,399,326
404728,318,398,325
404729,318,397,325
404730,317,393,324
404731,315,395,324
404732,316,395,321
404733,316,396,323
404734,315,396,323
404735,317,396,323
404736,315,397,324
404737,316,397,325
404738,316,398,324
404739,316,399,323
404740,315,398,323
404741,315,398,324
404742,315,398,323
404743,315,396,324
404744,315,393,321
404745,313,394,321
404746,313,394,320
404747,312,389,319
404748,311,391,317
404749,313,390,319
404750,312,391,320
404751,312,391,320
404752,311,391,322
404753,314,388,321
404754,314,392,320
404755,315,395,321
404756,315,394,324
404757,315,396,323
404758,317,395,323
404759,315,398,322
404760,315,398,322
404761,315,398,322
404762,314,393,322
404763,314,394,319
404764,314,393,320
404765,313,391,318
404766,312,391,319
404767,312,391,319
404768,310,387,318
404769,312,389,317
404770,310,389,318
404771,311,388,318
404772,310,388,319
404773,312,390,318
404774,312,390,319
404775,312,390,319
404776,312,389,319
404777,314,392,321
404778,313,395,321
404779,314,397,322
404780,315,398,323
404781,316,401,323
404782,317,402,323
404783,316,404,324
404784,318,401,325
404785,318,400,324
404786,318,398,323
404787,317,399,324
404788,318,399,325
404789,317,399,324
404790,317,398,324
404791,316,397,325
404792,316,397,325
404793,317,395,326
404794,319,398,325
404795,319,399,325
404796,319,399,326
404797,318,399,326
404798,317,398,325
404799,319,402,325
404800,316,400,324
404801,317,400,326
404802,318,398,324
404803,315,396,324
404804,313,395,321
404805,314,392,320
404806,313,390,319
404807,312,391,318
404808,312,391,319
404809,314,394,320
404810,316,400,325
404811,319,404,325
404812,321,405,327
404813,322,407,330
404814,323,406,331
404815,322,405,330
404816,321,401,330
404817,320,398,329
404818,317,397,325
404819,316,395,324
404820,314,395,321
404821,314,393,321
404822,314,393,320
404823,311,391,319
404824,312,387,317
404825,311,389,317
404826,308,388,316
404827,310,386,316
404828,308,388,315
404829,309,390,315
404830,311,387,317
404831,310,392,320
404832,313,395,320
404833,314,396,320
404834,315,395,323
404835,314,394,322
404836,314,392,324
404837,313,392,322
404838,313,391,321
404839,312,392,320
404840,312,393,318
404841,312,391,320
404842,312,391,320
404843,312,392,317
404844,310,391,317
404845,312,391,316
404846,310,390,317
404847,308,387,316
404848,309,388,316
404849,309,387,315
404850,310,384,316
404851,309,388,317
404852,310,390,319
404853,312,391,319
404854,312,394,321
404855,314,394,322
404856,315,395,322
404857,315,397,322
404858,316,397,324
404859,315,396,323
404860,316,400,324
404861,318,401,325
404862,317,405,326
404863,318,408,327
404864,321,406,328
404865,321,407,329
404866,321,406,328
404867,321,405,329
404868,320,401,328
404869,320,400,327
404870,317,399,326
404871,318,396,323
404872,315,395,322
404873,316,392,324
404874,316,393,323
404875,317,394,322
404876,316,393,322
404877,316,397,324
404878,315,398,322
404879,316,396,324
404880,317,402,325
404881,318,401,325
404882,317,401,325
404883,317,401,324
404884,314,398,324
404885,315,394,320
404886,314,392,321
404887,313,388,317
404888,312,388,317
404889,310,387,317
404890,310,388,317
404891,311,388,318
404892,312,387,318
404893,310,388,317
404894,310,388,317
404895,310,390,317
404896,311,391,319
404897,312,390,319
404898,311,390,320
404899,311,389,318
404900,309,388,315
404901,310,387,317
404902,309,385,316
404903,307,384,314
404904,307,385,315
404905,306,385,313
404906,306,380,312
404907,306,384,313
404908,305,384,313
404909,306,382,313
404910,307,385,314
404911,308,388,316
404912,309,389,317
404913,310,392,319
404914,313,393,321
404915,315,395,322
404916,315,393,323
404917,315,396,323
404918,313,394,322
404919,313,395,321
404920,314,395,321
404921,313,393,320
404922,313,394,320
404923,313,393,319
404924,312,392,319
404925,312,392,319
404926,312,394,320
404927,314,397,320
404928,314,397,321
404929,315,398,321
404930,316,399,323
404931,317,400,326
404932,317,398,327
404933,318,398,325
404934,318,398,325
404935,317,398,326
404936,318,400,324
404937,318,400,327
404938,318,400,325
404939,319,399,326
404940,319,402,325
404941,318,402,326
404942,319,404,326
404943,318,404,326
404944,319,403,326
404945,317,402,326
404946,317,401,325
404947,316,396,324
404948,314,396,322
404949,316,394,321
404950,315,395,321
404951,315,391,322
404952,314,392,323
404953,315,395,322
404954,314,394,321
404955,315,395,322
404956,314,394,324
404957,315,396,322
404958,316,397,323
404959,316,395,323
404960,316,397,323
404961,314,396,321
404962,316,394,322
404963,314,394,320
404964,313,395,322
404965,314,393,319
404966,313,390,318
404967,312,389,317
404968,310,386,317
404969,309,386,316
404970,309,387,315
404971,310,386,315
404972,307,386,316
404973,308,388,317
404974,311,387,317
404975,308,391,317
404976,310,389,318
404977,312,388,318
404978,312,389,319
404979,312,391,319
404980,312,389,318
404981,310,391,318
404982,311,390,317
404983,310,392,315
404984,311,387,316
404985,309,390,315
404986,308,389,315
404987,311,390,316
404988,309,390,315
404989,309,392,317
404990,312,392,318
404991,312,389,319
404992,313,394,319
404993,315,398,322
404994,316,401,325
404995,319,407,328
404996,321,412,330
404997,326,414,334
404998,328,418,336
404999,328,419,337
405000,329,415,336
405001,328,416,335
405002,328,413,333
405003,326,407,334
405004,323,405,331
405005,321,401,330
405006,318,400,325
405007,317,398,324
405008,317,396,325
405009,316,396,323
405010,315,396,324
405011,317,399,326
405012,318,400,327
405013,319,400,326
405014,320,399,328
405015,318,399,326
405016,318,398,326
405017,317,396,325
405018,316,396,326
405019,316,398,324
405020,315,397,322
405021,316,399,322
405022,314,396,322
405023,313,396,321
405024,315,392,322
405025,314,392,320
405026,312,392,318
405027,311,388,319
405028,312,389,318
405029,309,388,318
405030,308,387,317
405031,310,383,317
405032,309,388,318
405033,309,388,317
405034,309,388,318
405035,310,389,319
405036,311,389,318
405037,311,392,319
405038,311,393,319
405039,313,393,321
405040,313,395,320
405041,313,396,321
405042,313,397,321
405043,314,396,321
405044,313,393,320
405045,312,394,321
405046,314,393,320
405047,312,393,319
405048,313,395,320
405049,314,397,323
405050,315,399,324
405051,316,398,324
405052,316,401,326
405053,319,404,325
405054,321,407,328
405055,324,411,332
405056,324,415,332
405057,327,415,336
405058,328,416,335
405059,329,418,337
405060,328,417,336
405061,327,411,336
405062,327,408,333
405063,324,402,331
405064,319,400,327
405065,318,397,326
405066,317,394,323
405067,314,394,320
405068,313,391,320
405069,311,390,319
405070,311,386,318
405071,313,389,319
405072,313,389,318
405073,311,384,318
405074,309,387,317
405075,311,388,317
405076,311,389,318
405077,312,389,319
405078,311,392,317
405079,311,394,319
405080,313,396,321
405081,315,396,322
405082,313,397,322
405083,315,400,322
405084,315,399,324
405085,315,400,323
405086,316,400,323
405087,317,399,324
405088,316,396,323
405089,315,395,322
405090,313,394,321
405091,314,392,323
405092,313,387,320
405093,312,387,321
405094,311,386,319
405095,312,388,318
405096,310,388,318
405097,310,388,318
405098,311,386,317
405099,310,389,318
405100,309,389,316
405101,309,389,316
405102,309,388,316
405103,309,389,315
405104,308,388,316
405105,309,389,315
405106,309,389,316
405107,309,390,316
405108,310,390,317
405109,310,388,316
405110,310,390,318
405111,311,391,319
405112,312,388,319
405113,309,388,317
405114,311,390,318
405115,312,389,318
405116,312,390,320
405117,312,393,320
405118,313,391,320
405119,314,396,321
405120,313,396,320
405121,313,396,320
405122,314,395,322
405123,314,393,321
405124,313,392,319
405125,314,392,320
405126,312,388,318
405127,312,390,319
405128,311,392,319
405129,311,391,318
405130,310,391,320
405131,312,393,320
405132,313,396,320
405133,313,396,321
405134,316,399,323
405135,318,399,326
405136,318,403,326
405137,321,407,327
405138,321,411,331
405139,324,412,332
405140,325,409,333
405141,325,410,332
405142,325,410,331
405143,324,409,330
405144,324,407,330
405145,322,400,327
405146,320,398,326
405147,319,400,325
405148,318,399,325
405149,319,399,325
405150,319,400,326
405151,319,399,326
405152,318,397,325
405153,318,398,324
405154,318,397,324
405155,317,394,327
405156,315,396,325
405157,315,394,323
405158,315,395,321
405159,314,392,322
405160,314,391,320
405161,313,395,320
405162,312,393,319
405163,313,393,319
405164,313,394,320
405165,312,393,319
405166,312,393,318
405167,310,392,319
405168,312,390,319
405169,311,391,320
405170,314,391,319
405171,312,389,320
405172,313,392,320
405173,314,391,321
405174,313,392,321
405175,315,393,320
405176,312,392,321
405177,313,391,320
405178,313,389,320
405179,313,392,320
405180,312,393,318
405181,313,391,319
405182,312,393,320
405183,312,393,316
405184,313,392,318
405185,313,391,320
405186,312,392,320
405187,311,391,318
405188,312,390,317
405189,311,390,319
405190,311,391,320
405191,312,397,319
405192,312,393,320
405193,314,396,321
405194,317,400,323
405195,319,403,325
405196,320,407,327
405197,321,410,330
405198,323,411,331
405199,325,413,334
405200,326,413,333
405201,327,413,333
405202,324,409,332
405203,323,407,332
405204,324,406,331
405205,322,406,329
405206,322,405,329
