Time (ms),Bicep,Shoulder,Tricep
336032,339,462,342
336033,348,461,355
336034,356,464,365
336035,363,463,373
336036,370,461,382
336037,375,464,389
336038,383,466,401
336039,393,464,410
336040,397,464,418
336041,395,464,413
336042,387,466,405
336043,378,465,389
336044,370,464,381
336045,362,461,371
336046,356,463,362
336047,349,462,357
336048,342,462,345
336049,334,463,334
336050,329,462,327
336051,331,463,332
336052,338,458,340
336053,347,462,353
336054,356,463,364
336055,362,463,373
336056,370,462,381
336057,375,464,387
336058,383,465,399
336059,391,464,410
336060,397,465,414
336061,395,462,414
336062,387,463,403
336063,378,465,390
336064,369,465,381
336065,361,463,372
336066,354,462,362
336067,349,463,355
336068,342,463,344
336069,334,463,333
336070,329,457,327
336071,330,462,330
336072,336,463,339
336073,348,463,352
336074,355,461,362
336075,363,462,372
336076,368,462,380
336077,374,463,388
336078,381,461,398
336079,392,462,410
336080,396,464,417
336081,396,465,413
336082,387,464,404
336083,379,465,392
336084,369,466,381
336085,361,464,370
336086,356,463,362
336087,350,464,355
336088,343,461,345
336089,334,463,334
336090,328,463,328
336091,331,461,331
336092,337,462,340
336093,348,462,352
336094,356,459,364
336095,363,461,372
336096,367,463,379
336097,373,464,387
336098,382,464,398
336099,389,463,410
336100,396,465,415
336101,394,463,413
336102,387,463,404
336103,376,463,390
336104,368,463,380
336105,360,459,370
336106,353,463,363
336107,349,462,354
336108,340,461,344
336109,333,460,333
336110,327,462,326
336111,329,461,331
336112,337,461,339
336113,346,461,352
336114,355,460,363
336115,362,459,371
336116,369,461,381
336117,374,461,387
336118,382,462,398
336119,390,463,410
336120,396,462,415
336121,393,463,412
336122,386,463,404
336123,379,463,392
336124,369,464,379
336125,362,463,370
336126,355,461,363
336127,349,460,356
336128,341,460,344
336129,332,462,334
336130,327,462,327
336131,330,461,331
336132,337,461,339
336133,345,457,352
336134,355,460,363
336135,362,461,373
336136,368,463,381
336137,374,462,386
336138,381,463,397
336139,387,464,410
336140,395,463,415
336141,392,463,412
336142,385,461,403
336143,376,464,390
336144,367,462,380
336145,360,463,369
336146,355,462,362
336147,349,464,353
336148,341,461,344
336149,333,460,332
336150,328,459,326
336151,329,460,330
336152,336,460,340
336153,346,461,352
336154,352,461,362
336155,362,464,372
336156,368,460,380
336157,374,464,386
336158,382,463,398
336159,390,464,409
336160,396,463,415
336161,393,462,413
336162,386,465,403
336163,377,459,390
336164,366,462,379
336165,361,463,369
336166,355,461,362
336167,348,461,355
336168,339,462,344
336169,333,458,333
336170,328,461,326
336171,329,462,329
336172,335,462,339
336173,345,461,352
336174,354,462,363
336175,363,461,372
336176,369,462,381
336177,371,460,386
336178,381,463,399
336179,390,462,408
336180,396,462,415
336181,394,463,412
336182,385,462,403
336183,377,464,389
336184,368,464,380
336185,359,462,367
336186,353,460,361
336187,349,463,354
336188,340,462,344
336189,333,461,334
336190,328,462,325
336191,330,461,330
336192,337,462,339
336193,345,462,352
336194,353,459,362
336195,362,461,371
336196,367,460,381
336197,374,460,387
336198,382,461,399
336199,388,463,408
336200,394,463,415
336201,393,463,412
336202,387,459,403
336203,377,461,390
336204,368,462,380
336205,361,462,369
336206,355,461,362
336207,349,462,354
336208,342,461,344
336209,333,460,333
336210,326,460,326
336211,328,458,329
336212,337,460,339
336213,345,461,351
336214,354,461,361
336215,361,461,372
336216,367,460,379
336217,372,461,386
336218,379,461,399
336219,389,461,407
336220,394,462,415
336221,393,462,412
336222,387,460,403
336223,376,462,390
336224,367,462,378
336225,359,460,368
336226,354,461,361
336227,348,461,352
336228,341,462,342
336229,332,460,333
336230,327,460,325
336231,330,461,330
336232,336,460,340
336233,345,460,351
336234,354,459,364
336235,362,460,369
336236,368,460,379
336237,373,459,386
336238,381,460,400
336239,389,463,409
336240,394,461,414
336241,393,462,412
336242,385,462,402
336243,375,461,390
336244,367,459,381
336245,360,459,368
336246,354,461,362
336247,347,462,353
336248,341,461,344
336249,333,460,333
336250,327,460,327
336251,330,459,330
336252,335,459,337
336253,345,461,351
336254,353,461,363
336255,362,462,370
336256,368,461,380
336257,373,459,387
336258,381,462,399
336259,389,462,407
336260,395,461,414
336261,394,463,411
336262,390,461,404
336263,379,461,391
336264,369,462,380
336265,362,461,370
336266,354,457,361
336267,349,459,355
336268,341,460,343
336269,333,460,333
336270,328,461,326
336271,330,460,329
336272,337,461,339
336273,344,460,351
336274,355,461,363
336275,361,460,371
336276,369,462,379
336277,371,462,387
336278,381,463,399
336279,389,463,408
336280,395,461,415
336281,393,464,412
336282,385,464,403
336283,377,463,391
336284,368,463,379
336285,360,462,370
336286,355,462,361
336287,349,461,353
336288,341,461,344
336289,333,458,335
336290,329,462,326
336291,330,459,330
336292,336,461,339
336293,346,461,350
336294,352,459,363
336295,362,459,371
336296,366,461,380
336297,374,462,387
336298,380,462,397
336299,388,462,407
336300,395,461,415
336301,392,462,414
336302,386,460,403
336303,376,462,390
336304,368,462,380
336305,360,463,369
336306,355,462,361
336307,348,459,355
336308,340,459,344
336309,333,459,334
336310,327,461,327
336311,329,457,330
336312,336,459,339
336313,346,460,353
336314,353,461,361
336315,361,461,372
336316,367,461,379
336317,373,462,386
336318,379,462,399
336319,388,462,407
336320,394,462,415
336321,394,463,412
336322,386,462,403
336323,377,460,389
336324,367,462,380
336325,360,462,370
336326,355,464,361
336327,348,461,354
336328,341,460,345
336329,331,460,334
336330,327,461,328
336331,329,459,330
336332,335,460,339
336333,345,459,353
336334,354,461,362
336335,361,463,372
336336,368,462,379
336337,372,462,386
336338,381,463,397
336339,390,463,407
336340,395,463,413
336341,394,463,412
336342,385,464,404
336343,377,464,391
336344,368,457,380
336345,361,462,371
336346,354,461,363
336347,349,461,354
336348,341,460,343
336349,333,460,333
336350,328,461,327
336351,328,459,330
336352,336,459,337
336353,346,460,349
336354,353,460,360
336355,359,461,371
336356,367,460,380
336357,372,463,386
336358,379,462,397
336359,387,462,409
336360,395,462,414
336361,394,463,411
336362,384,462,403
336363,375,462,388
336364,367,462,380
336365,359,461,369
336366,353,464,359
336367,350,461,354
336368,342,458,343
336369,332,460,332
336370,326,459,326
336371,329,459,328
336372,337,459,340
336373,346,459,350
336374,354,458,361
336375,360,461,370
336376,367,460,380
336377,374,459,387
336378,380,462,398
336379,390,462,407
336380,395,463,415
336381,392,461,413
336382,386,462,401
336383,375,464,391
336384,367,462,379
336385,359,461,369
336386,353,462,361
336387,348,460,355
336388,341,460,343
336389,332,456,334
336390,326,459,326
336391,327,461,329
336392,336,460,339
336393,345,460,351
336394,351,461,360
336395,361,460,371
336396,368,461,380
336397,373,459,385
336398,381,462,397
336399,389,460,408
336400,394,463,416
336401,393,465,412
336402,387,463,403
336403,376,463,390
336404,369,462,379
336405,360,461,369
336406,355,461,361
336407,348,461,355
336408,341,462,345
336409,334,455,333
336410,328,460,326
336411,328,460,330
336412,336,459,339
336413,346,459,350
336414,354,460,362
336415,361,460,372
336416,368,462,378
336417,374,460,387
336418,381,461,398
336419,389,462,408
336420,396,462,413
336421,392,463,411
336422,386,461,402
336423,377,462,389
336424,370,463,379
336425,360,461,370
336426,355,461,361
336427,349,462,355
336428,342,461,345
336429,333,460,333
336430,327,459,326
336431,329,459,330
336432,335,459,338
336433,343,462,352
336434,352,462,363
336435,360,461,370
336436,366,459,379
336437,372,459,386
336438,381,462,397
336439,389,461,408
336440,396,463,414
336441,393,461,413
336442,385,463,402
336443,377,463,391
336444,368,463,380
336445,361,462,372
336446,353,462,361
336447,349,461,355
336448,341,461,343
336449,332,461,333
336450,326,461,327
336451,329,459,329
336452,335,460,339
336453,345,460,350
336454,354,461,361
336455,362,460,372
336456,367,461,380
336457,372,461,386
336458,379,460,397
336459,389,463,407
336460,396,462,416
336461,391,459,413
336462,387,464,404
336463,377,463,391
336464,369,461,380
336465,360,461,370
336466,355,463,362
336467,349,461,356
336468,341,461,346
336469,334,460,333
336470,325,460,328
336471,326,460,328
336472,336,461,340
336473,345,459,350
336474,354,459,361
336475,362,462,371
336476,367,462,380
336477,373,461,387
336478,380,462,398
336479,389,461,407
336480,396,460,416
336481,395,462,413
336482,386,464,402
336483,376,463,390
336484,366,463,379
336485,360,461,369
336486,353,461,361
336487,347,464,355
336488,341,462,345
336489,332,460,332
336490,327,461,326
336491,328,459,328
336492,336,462,339
336493,344,460,351
336494,354,461,361
336495,361,457,371
336496,367,462,379
336497,374,462,387
336498,381,462,397
336499,389,462,407
336500,394,462,414
336501,391,461,412
336502,385,462,402
336503,377,460,391
336504,368,461,379
336505,360,461,370
336506,355,461,362
336507,349,462,356
336508,341,460,344
336509,332,460,334
336510,325,460,326
336511,328,459,328
336512,335,459,340
336513,346,462,351
336514,354,463,362
336515,361,463,372
336516,367,460,378
336517,372,461,386
336518,380,462,397
336519,388,463,407
336520,395,463,414
336521,393,462,413
336522,387,463,402
336523,377,462,391
336524,368,462,379
336525,360,462,371
336526,355,459,361
336527,348,463,355
336528,340,460,344
336529,333,461,334
336530,327,462,325
336531,330,460,329
336532,337,459,338
336533,344,459,351
336534,353,461,361
336535,361,457,371
336536,366,461,379
336537,371,461,386
336538,379,460,396
336539,388,462,406
336540,396,463,415
336541,393,462,413
336542,386,462,403
336543,376,462,391
336544,368,461,379
336545,361,463,369
336546,354,462,361
336547,347,462,353
336548,341,462,344
336549,333,459,334
336550,326,455,326
336551,329,460,329
336552,334,460,337
336553,344,461,350
336554,352,461,362
336555,361,461,371
336556,366,459,379
336557,372,460,387
336558,379,462,397
336559,389,462,409
336560,395,462,416
336561,394,460,413
336562,386,459,403
336563,376,462,391
336564,369,459,380
336565,361,462,370
336566,354,462,362
336567,349,460,355
336568,341,459,343
336569,335,461,335
336570,327,459,327
336571,330,461,328
336572,335,460,338
336573,345,462,352
336574,353,462,362
336575,362,462,369
336576,367,462,379
336577,373,460,387
336578,380,462,396
336579,388,462,407
336580,395,463,415
336581,393,462,411
336582,386,463,403
336583,377,463,392
336584,368,464,380
336585,361,461,370
336586,355,461,363
336587,348,459,355
336588,343,460,345
336589,332,461,333
336590,328,461,328
336591,329,460,329
336592,334,460,337
336593,345,461,349
336594,353,458,361
336595,360,462,372
336596,368,464,380
336597,374,462,387
336598,379,461,397
336599,390,459,408
336600,395,463,414
336601,394,464,413
336602,387,460,403
336603,378,462,390
336604,368,463,379
336605,362,462,369
336606,355,460,362
336607,349,462,354
336608,343,460,344
336609,334,459,333
336610,327,460,325
336611,328,457,329
336612,335,460,338
336613,343,462,351
336614,356,462,361
336615,363,461,372
336616,367,462,379
336617,371,462,385
336618,380,460,398
336619,389,463,408
336620,396,462,415
336621,394,462,413
336622,387,463,404
336623,378,459,392
336624,369,463,379
336625,361,461,370
336626,356,462,363
336627,349,460,356
336628,343,459,345
336629,333,461,332
336630,327,460,327
336631,328,458,329
336632,335,460,339
336633,345,459,348
336634,354,462,360
336635,362,461,370
336636,368,464,379
336637,373,461,387
336638,379,459,396
336639,390,462,408
336640,396,463,415
336641,394,463,412
336642,386,462,405
336643,377,464,389
336644,368,460,380
336645,361,462,370
336646,355,463,361
336647,349,462,357
336648,343,461,344
336649,333,460,332
336650,327,461,327
336651,329,462,329
336652,335,460,337
336653,344,460,350
336654,353,459,361
336655,361,461,369
336656,366,461,379
336657,372,462,386
336658,379,464,396
336659,390,461,408
336660,395,464,414
336661,393,464,413
336662,387,463,403
336663,378,462,392
336664,367,459,380
336665,360,461,370
336666,353,462,362
336667,350,461,354
336668,341,459,345
336669,334,459,334
336670,327,458,327
336671,329,459,329
336672,336,460,340
336673,344,460,350
336674,353,462,361
336675,362,458,372
336676,367,461,379
336677,373,462,386
336678,380,461,396
336679,388,461,408
336680,395,459,416
336681,392,463,413
336682,386,462,403
336683,377,462,391
336684,368,462,379
336685,362,460,371
336686,355,460,363
336687,347,462,355
336688,341,462,344
336689,333,459,334
336690,326,461,326
336691,328,457,328
336692,335,459,338
336693,343,461,348
336694,354,459,360
336695,359,461,371
336696,363,462,378
336697,373,460,385
336698,379,462,396
336699,387,462,407
336700,396,461,414
336701,393,461,412
336702,385,461,404
336703,377,460,391
336704,368,461,380
336705,360,461,370
336706,356,462,363
336707,350,461,354
336708,342,462,345
336709,331,459,332
336710,325,461,326
336711,327,462,329
336712,335,460,338
336713,345,459,349
336714,353,459,361
336715,361,459,370
336716,367,461,379
336717,372,458,384
336718,379,462,396
336719,390,459,408
336720,395,461,415
336721,394,457,412
336722,387,463,403
336723,378,461,391
336724,369,461,380
336725,360,461,370
336726,354,460,362
336727,348,461,354
336728,340,459,344
336729,334,461,334
336730,327,459,325
336731,329,458,328
336732,335,458,338
336733,343,459,349
336734,353,460,360
336735,360,461,371
336736,367,462,378
336737,371,461,386
336738,379,462,395
336739,389,461,408
336740,393,463,415
336741,394,463,414
336742,386,461,403
336743,376,462,389
336744,370,459,380
336745,360,460,370
336746,355,461,361
336747,349,461,354
336748,341,456,343
336749,333,460,335
336750,328,461,327
336751,329,461,327
336752,334,457,338
336753,343,460,350
336754,353,460,361
336755,360,461,371
336756,366,461,378
336757,372,462,386
336758,380,461,395
336759,389,461,407
336760,394,462,415
336761,394,463,412
336762,386,462,403
336763,379,461,391
336764,368,460,381
336765,362,459,370
336766,354,460,361
336767,348,461,353
336768,341,460,345
336769,334,460,334
336770,325,459,325
336771,328,458,328
336772,335,459,338
336773,344,461,349
336774,353,459,360
336775,361,460,371
336776,366,460,377
336777,372,461,386
336778,379,461,395
336779,389,462,406
336780,395,462,416
336781,393,461,412
336782,387,461,403
336783,377,464,392
336784,369,462,380
336785,360,462,370
336786,355,461,362
336787,349,460,354
336788,342,458,345
336789,333,459,335
336790,327,462,325
336791,329,460,328
336792,336,459,338
336793,345,456,349
336794,353,462,361
336795,363,462,371
336796,367,463,380
336797,374,462,386
336798,379,459,397
336799,388,461,405
336800,393,462,415
336801,394,461,411
336802,388,463,403
336803,377,459,392
336804,367,463,380
336805,360,459,371
336806,355,460,364
336807,349,461,355
336808,342,461,345
336809,333,461,334
336810,326,460,326
336811,328,460,329
336812,336,459,339
336813,344,457,349
336814,352,461,361
336815,360,459,371
336816,367,461,379
336817,373,463,384
336818,380,461,398
336819,388,462,405
336820,394,463,416
336821,393,463,412
336822,387,464,404
336823,380,462,391
336824,369,461,380
336825,362,461,371
336826,356,461,361
336827,348,463,355
336828,343,460,345
336829,333,461,333
336830,328,459,327
336831,329,461,329
336832,335,459,338
336833,346,460,350
336834,354,461,360
336835,359,461,371
336836,367,460,378
336837,371,462,386
336838,381,461,396
336839,389,460,406
336840,394,462,414
336841,393,461,412
336842,386,462,403
336843,378,460,391
336844,369,462,382
336845,361,462,369
336846,354,462,361
336847,349,461,353
336848,343,461,345
336849,333,459,334
336850,327,459,327
336851,328,459,329
336852,335,459,339
336853,344,458,348
336854,353,461,361
336855,360,460,372
336856,367,462,379
336857,373,461,387
336858,380,461,395
336859,388,460,406
336860,394,459,416
336861,394,462,411
336862,387,462,404
336863,377,461,393
336864,367,461,380
336865,361,463,370
336866,354,463,360
336867,349,459,354
336868,343,460,346
336869,331,459,333
336870,328,456,326
336871,327,458,328
336872,335,458,337
336873,344,459,350
336874,351,462,359
336875,360,461,370
336876,366,460,379
336877,371,460,386
336878,378,458,395
336879,388,460,408
336880,393,459,414
336881,394,462,412
336882,387,462,403
336883,378,461,391
336884,369,462,380
336885,360,460,369
336886,353,461,360
336887,349,460,355
336888,343,461,345
336889,334,456,334
336890,326,460,328
336891,328,459,327
336892,336,460,337
336893,343,458,349
336894,352,457,359
336895,360,458,370
336896,367,461,379
336897,372,458,386
336898,378,461,394
336899,388,462,408
336900,395,462,414
336901,394,461,412
336902,386,460,403
336903,377,461,392
336904,368,462,380
336905,359,462,370
336906,355,461,362
336907,348,461,355
336908,342,460,345
336909,330,460,335
336910,327,459,327
336911,327,457,328
336912,335,459,337
336913,344,461,349
336914,352,457,361
336915,361,460,371
336916,367,461,378
336917,373,460,387
336918,379,458,395
336919,387,460,407
336920,395,460,416
336921,393,462,414
336922,385,461,403
336923,376,460,392
336924,367,461,380
336925,359,460,369
336926,356,460,362
336927,348,459,355
336928,342,459,344
336929,332,460,333
336930,326,459,326
336931,327,459,327
336932,335,459,337
336933,343,458,349
336934,351,460,361
336935,360,458,368
336936,366,460,377
336937,372,461,385
336938,380,461,395
336939,388,462,406
336940,394,460,414
336941,393,462,412
336942,386,459,403
336943,377,460,392
336944,368,462,379
336945,360,461,368
336946,353,459,361
336947,348,461,354
336948,341,462,344
336949,332,460,335
336950,326,460,325
336951,329,460,328
336952,334,457,337
336953,343,460,349
336954,354,457,360
336955,361,457,370
336956,368,464,378
336957,372,460,386
336958,377,457,396
336959,388,460,406
336960,394,461,414
336961,395,460,412
336962,387,461,403
336963,376,462,392
336964,368,462,380
336965,361,459,370
336966,355,459,360
336967,349,460,355
336968,342,460,344
336969,334,460,334
336970,327,461,326
336971,328,459,328
336972,336,459,337
336973,344,457,349
336974,351,460,362
336975,361,457,368
336976,366,461,376
336977,371,461,385
336978,379,462,396
336979,388,463,405
336980,393,461,415
336981,393,462,412
336982,386,462,403
336983,376,462,390
336984,368,461,379
336985,360,460,369
336986,356,457,361
336987,348,459,354
336988,343,457,345
336989,334,459,334
336990,327,460,325
336991,329,458,329
336992,334,460,336
336993,343,460,348
336994,352,460,360
336995,359,453,371
336996,365,460,377
336997,371,461,386
336998,380,457,396
336999,387,462,408
337000,394,462,413
337001,392,460,412
337002,386,462,402
337003,377,462,390
337004,368,462,380
337005,360,461,369
337006,353,459,360
337007,348,460,353
337008,344,460,344
337009,333,460,335
337010,325,457,326
337011,328,459,327
337012,335,459,337
337013,343,458,348
337014,352,459,360
337015,359,461,369
337016,365,460,377
337017,370,461,383
337018,378,459,392
337019,387,460,406
337020,394,461,415
337021,393,462,413
337022,385,458,403
337023,379,461,392
337024,368,461,380
337025,361,460,369
337026,355,457,362
337027,348,458,356
337028,342,461,346
337029,333,459,334
337030,327,458,325
337031,328,462,327
337032,334,460,338
337033,342,459,350
337034,351,458,360
337035,359,461,369
337036,368,459,376
337037,371,461,385
337038,379,462,396
337039,387,461,406
337040,394,459,414
337041,394,461,411
337042,385,461,403
337043,377,461,393
337044,368,462,380
337045,358,460,370
337046,355,460,362
337047,347,461,354
337048,342,458,345
337049,333,459,333
337050,327,459,326
337051,327,459,328
337052,337,459,337
337053,343,460,349
337054,352,461,360
337055,361,460,371
337056,365,459,377
337057,373,461,385
337058,379,460,396
337059,389,461,407
337060,396,462,415
337061,394,462,412
337062,385,462,403
337063,377,462,392
337064,367,463,380
337065,361,459,369
337066,356,460,362
337067,349,459,354
337068,343,461,345
337069,332,460,333
337070,327,460,324
337071,328,459,328
337072,336,460,337
337073,342,460,347
337074,353,460,359
337075,360,460,369
337076,368,461,379
337077,373,462,384
337078,377,461,394
337079,386,461,406
337080,394,459,414
337081,393,462,412
337082,386,461,404
337083,376,462,392
337084,369,462,380
337085,361,460,369
337086,355,461,361
337087,349,459,354
337088,343,459,345
337089,332,460,333
337090,325,459,325
337091,329,460,326
337092,335,461,337
337093,344,460,347
337094,352,460,359
337095,358,460,370
337096,365,462,378
337097,372,461,386
337098,376,462,393
337099,385,462,406
337100,394,461,413
337101,394,459,414
337102,386,459,403
337103,378,462,392
337104,369,462,379
337105,360,462,370
337106,354,462,362
337107,348,460,356
337108,341,459,346
337109,333,461,333
337110,325,461,325
337111,324,458,326
337112,334,458,336
337113,342,460,349
337114,352,460,359
337115,360,460,369
337116,366,460,378
337117,372,460,384
337118,377,461,393
337119,389,462,406
337120,395,460,413
337121,393,460,414
337122,386,463,403
337123,378,462,392
337124,369,459,379
337125,361,461,370
337126,356,460,361
337127,349,461,355
337128,344,461,344
337129,334,460,333
337130,327,458,326
337131,327,459,328
337132,335,457,337
337133,343,459,348
337134,351,459,359
337135,359,459,370
337136,365,457,377
337137,371,462,385
337138,378,461,393
337139,388,462,407
337140,393,460,413
337141,393,461,414
337142,386,462,405
337143,378,460,392
337144,368,462,380
337145,360,462,370
337146,354,462,362
337147,348,460,354
337148,343,458,346
337149,334,461,334
337150,327,460,327
337151,328,460,327
337152,334,461,337
337153,343,459,348
337154,351,460,361
337155,360,460,371
337156,367,457,379
337157,371,460,385
337158,378,460,396
337159,388,459,408
337160,394,462,414
337161,393,461,413
337162,385,461,403
337163,378,459,392
337164,367,461,379
337165,360,461,370
337166,354,461,362
337167,348,459,355
337168,342,460,346
337169,333,460,332
337170,327,460,327
337171,328,460,326
337172,333,460,336
337173,344,456,348
337174,353,460,359
337175,361,457,372
337176,366,461,379
337177,372,462,385
337178,378,462,394
337179,388,460,407
337180,394,461,416
337181,393,461,413
337182,387,459,404
337183,378,462,393
337184,369,463,380
337185,361,461,371
337186,355,459,362
337187,349,461,354
337188,343,461,345
337189,334,462,335
337190,328,459,327
337191,327,460,329
337192,334,458,337
337193,344,460,348
337194,351,460,358
337195,360,460,369
337196,366,461,379
337197,371,459,386
337198,379,462,395
337199,389,459,406
337200,395,459,415
337201,393,463,414
337202,387,464,405
337203,378,463,394
337204,369,464,381
337205,363,461,371
337206,355,462,363
337207,349,460,355
337208,343,458,346
337209,333,461,335
337210,328,462,326
337211,328,460,328
337212,335,460,337
337213,343,460,349
337214,353,461,361
337215,361,460,371
337216,367,461,378
337217,373,461,385
337218,380,461,395
337219,389,462,405
337220,395,463,415
337221,395,462,414
337222,388,464,404
337223,379,462,391
337224,370,459,380
337225,362,460,371
337226,356,463,364
337227,349,462,355
337228,343,461,347
337229,334,460,336
337230,328,461,328
337231,328,461,329
337232,334,461,337
337233,343,460,348
337234,351,460,359
337235,361,463,370
337236,367,460,378
337237,371,463,385
337238,379,462,395
337239,388,463,407
337240,395,463,415
337241,396,462,414
337242,388,464,406
337243,380,461,393
337244,367,462,382
337245,362,463,371
337246,357,462,364
337247,351,462,356
337248,345,463,348
337249,333,460,333
337250,328,461,326
337251,328,460,327
337252,335,460,336
337253,343,461,348
337254,352,462,360
337255,362,461,370
337256,365,462,378
337257,373,462,386
337258,380,463,396
337259,390,462,408
337260,395,462,415
337261,395,464,415
337262,388,463,405
337263,379,462,392
337264,371,460,383
337265,362,463,371
337266,356,462,364
337267,350,461,356
337268,344,462,347
337269,334,459,334
337270,329,461,328
337271,328,461,327
337272,334,459,337
337273,343,461,348
337274,353,460,360
337275,361,459,370
337276,366,460,379
337277,373,461,387
337278,379,463,394
337279,388,462,406
337280,397,462,416
337281,395,461,414
337282,388,461,405
337283,380,463,393
337284,370,462,382
337285,359,462,371
337286,355,461,363
337287,349,461,355
337288,344,461,347
337289,335,462,334
337290,328,462,326
337291,328,460,327
337292,334,460,337
337293,344,462,349
337294,353,462,360
337295,360,458,369
337296,366,462,379
337297,372,461,386
337298,378,462,395
337299,388,462,406
337300,394,462,415
337301,394,463,413
337302,386,463,404
337303,379,462,392
337304,368,460,382
337305,362,463,372
337306,356,462,364
337307,349,460,357
337308,344,458,347
337309,333,461,335
337310,328,460,325
337311,328,461,328
337312,336,458,336
337313,344,461,347
337314,353,462,360
337315,359,462,370
337316,367,461,378
337317,373,462,385
337318,379,460,395
337319,388,461,406
337320,396,462,414
337321,395,463,415
337322,387,460,406
337323,379,463,393
337324,369,462,381
337325,362,460,372
337326,355,463,364
337327,349,460,355
337328,345,461,348
337329,335,461,335
337330,327,458,325
337331,328,461,328
337332,335,461,337
337333,341,462,347
337334,353,462,360
337335,361,459,370
337336,366,460,379
337337,371,462,384
337338,376,461,393
337339,387,462,406
337340,394,463,415
337341,394,461,413
337342,387,462,404
337343,380,460,393
337344,368,461,381
337345,361,461,370
337346,356,462,364
337347,349,459,355
337348,344,459,348
337349,334,462,335
337350,326,460,328
337351,327,460,328
337352,334,460,335
337353,343,460,348
337354,352,462,358
337355,360,461,369
337356,367,461,378
337357,371,461,385
337358,378,462,393
337359,388,462,406
337360,395,462,415
337361,395,461,414
337362,387,462,404
337363,379,462,392
337364,369,461,381
337365,360,461,370
337366,356,460,363
337367,348,461,356
337368,345,462,348
337369,334,460,335
337370,326,460,326
337371,329,461,327
337372,335,460,336
337373,343,460,348
337374,352,462,360
337375,358,460,369
337376,365,460,376
337377,371,463,385
337378,378,460,393
337379,387,461,406
337380,395,460,414
337381,394,462,413
337382,387,461,404
337383,380,464,392
337384,369,459,381
337385,361,462,371
337386,356,462,363
337387,350,460,356
337388,343,460,348
337389,333,461,333
337390,327,461,326
337391,327,457,326
337392,333,457,336
337393,339,460,347
337394,352,460,358
337395,361,461,369
337396,366,458,377
337397,371,461,384
337398,378,467,394
337399,388,463,407
337400,394,461,414
337401,394,461,413
337402,387,463,403
337403,380,462,393
337404,370,462,381
337405,360,463,368
337406,356,459,362
337407,349,461,356
337408,341,460,347
337409,333,461,333
337410,326,459,327
337411,327,460,326
337412,334,460,336
337413,343,459,347
337414,353,459,358
337415,360,461,368
337416,365,461,376
337417,371,462,384
337418,378,460,394
337419,389,462,406
337420,394,462,415
337421,394,461,413
337422,387,462,406
337423,380,463,392
337424,368,462,379
337425,361,461,371
337426,353,463,362
337427,347,460,353
337428,344,459,346
337429,331,460,334
337430,326,460,325
337431,327,460,327
337432,334,459,336
337433,342,460,347
337434,353,458,358
337435,359,458,368
337436,366,461,377
337437,372,459,384
337438,378,461,395
337439,388,459,406
337440,394,461,414
337441,395,464,413
337442,385,462,402
337443,378,459,391
337444,369,462,381
337445,362,461,371
337446,354,460,363
337447,348,459,355
337448,342,461,347
337449,333,461,334
337450,326,458,327
337451,325,459,327
337452,334,459,336
337453,343,461,348
337454,353,461,360
337455,359,462,369
337456,367,461,376
337457,372,461,385
337458,378,462,393
337459,386,461,406
337460,395,459,414
337461,395,460,414
337462,387,459,404
337463,378,462,392
337464,369,461,380
337465,362,461,371
337466,356,460,364
337467,350,461,356
337468,342,461,347
337469,333,459,334
337470,327,459,326
337471,327,457,327
337472,334,461,336
337473,341,457,347
337474,351,459,358
337475,360,459,368
337476,364,460,375
337477,373,461,384
337478,378,459,393
337479,387,461,406
337480,395,461,415
337481,396,464,414
337482,388,462,404
337483,379,461,393
337484,369,463,379
337485,360,461,372
337486,356,460,363
337487,350,459,355
337488,344,460,347
337489,334,459,335
337490,327,462,325
337491,327,460,328
337492,334,459,337
337493,343,460,346
337494,352,459,360
337495,361,457,369
337496,365,462,376
337497,372,462,386
337498,378,461,393
337499,388,462,405
337500,395,462,414
337501,394,462,415
337502,387,462,405
337503,379,460,392
337504,369,463,381
337505,361,461,371
337506,355,461,363
337507,349,461,355
337508,343,461,345
337509,334,461,334
337510,327,459,325
337511,328,459,327
337512,334,459,336
337513,342,460,345
337514,354,460,358
337515,360,459,370
337516,366,460,377
337517,371,461,384
337518,377,463,393
337519,387,459,405
337520,396,461,415
337521,396,461,415
337522,386,461,405
337523,378,463,394
337524,369,460,381
337525,362,460,371
337526,356,460,364
337527,350,462,356
337528,344,461,348
337529,334,459,336
337530,327,460,327
337531,327,460,327
337532,334,460,337
337533,343,461,347
337534,351,460,360
337535,360,460,369
337536,366,461,377
337537,371,460,384
337538,376,463,393
337539,386,459,406
337540,395,462,414
337541,393,462,415
337542,388,462,405
337543,379,461,394
337544,369,462,381
337545,361,462,371
337546,355,462,363
337547,349,458,355
337548,344,459,349
337549,334,460,335
337550,328,457,327
337551,328,460,327
337552,335,462,337
337553,343,459,347
337554,352,461,359
337555,362,461,370
337556,365,461,377
337557,372,461,385
337558,378,461,393
337559,388,461,404
337560,395,463,415
337561,395,460,413
337562,387,462,405
337563,378,460,393
337564,369,462,381
337565,362,460,369
337566,357,463,363
337567,349,459,355
337568,344,460,347
337569,334,460,335
337570,328,459,326
337571,326,459,327
337572,334,460,335
337573,342,461,347
337574,353,460,360
337575,359,461,370
337576,365,459,375
337577,369,461,384
337578,377,461,392
337579,387,461,406
337580,393,460,413
337581,395,461,414
337582,385,462,404
337583,379,463,394
337584,368,461,380
337585,362,462,371
337586,354,461,362
337587,349,461,355
337588,344,461,350
337589,334,461,335
337590,327,458,326
337591,328,460,326
337592,333,457,335
337593,342,462,345
337594,351,460,360
337595,359,459,370
337596,365,460,376
337597,371,458,385
337598,377,460,394
337599,386,463,406
337600,394,461,414
337601,395,464,415
337602,386,461,405
337603,380,460,393
337604,368,461,381
337605,363,461,371
337606,355,462,364
337607,349,458,355
337608,345,461,349
337609,334,461,334
337610,326,460,327
337611,326,458,327
337612,333,462,337
337613,342,461,346
337614,353,460,359
337615,361,460,369
337616,367,459,377
337617,372,460,385
337618,377,461,392
337619,388,460,406
337620,395,462,414
337621,394,460,414
337622,387,463,405
337623,378,461,394
337624,367,462,381
337625,361,462,371
337626,356,460,363
337627,348,461,355
337628,344,461,349
337629,334,461,334
337630,329,456,327
337631,328,459,327
337632,334,459,336
337633,342,460,347
337634,352,461,359
337635,359,461,370
337636,366,462,378
337637,371,460,385
337638,378,461,392
337639,388,461,405
337640,395,457,414
337641,395,462,414
337642,387,462,405
337643,379,461,394
337644,369,459,381
337645,363,461,371
337646,355,458,363
337647,350,460,354
337648,343,461,348
337649,334,461,333
337650,328,459,326
337651,327,459,325
337652,333,460,335
337653,343,456,347
337654,351,459,359
337655,359,461,369
337656,364,460,376
337657,372,462,385
337658,377,460,394
337659,389,458,405
337660,394,458,414
337661,394,460,413
337662,385,464,405
337663,380,460,393
337664,368,459,381
337665,361,460,371
337666,355,462,363
337667,348,460,356
337668,344,460,348
337669,334,460,334
337670,328,459,327
337671,326,460,326
337672,335,459,335
337673,342,459,347
337674,353,458,359
337675,359,461,369
337676,366,461,377
337677,371,461,385
337678,377,461,392
337679,385,461,406
337680,393,462,417
337681,392,461,415
337682,388,460,406
337683,379,462,394
337684,368,460,382
337685,362,459,372
337686,356,461,363
337687,348,459,356
337688,345,460,348
337689,334,461,333
337690,328,458,328
337691,328,460,328
337692,333,460,336
337693,342,461,347
337694,351,462,359
337695,359,457,369
337696,365,458,375
337697,372,459,384
337698,378,461,391
337699,388,463,406
337700,394,461,414
337701,394,462,414
337702,387,461,405
337703,378,462,392
337704,368,459,381
337705,361,461,371
337706,355,462,363
337707,349,459,356
337708,345,461,349
337709,335,462,333
337710,327,460,325
337711,327,459,326
337712,335,460,336
337713,342,460,348
337714,352,460,357
337715,360,459,368
337716,365,461,375
337717,371,460,384
337718,377,462,394
337719,387,461,408
337720,395,463,414
337721,395,462,416
337722,387,464,406
337723,380,463,395
337724,369,461,382
337725,361,461,370
337726,356,459,364
337727,349,460,355
337728,346,460,349
337729,335,461,335
337730,327,460,326
337731,328,460,326
337732,335,460,336
337733,342,457,346
337734,350,455,359
337735,359,460,370
337736,365,461,376
337737,371,458,384
337738,377,460,392
337739,387,460,406
337740,394,463,415
337741,393,461,414
337742,387,462,404
337743,379,460,394
337744,368,461,381
337745,360,461,370
337746,355,461,363
337747,348,460,355
337748,344,460,349
337749,332,459,334
337750,326,459,327
337751,326,458,325
337752,334,459,335
337753,342,457,346
337754,351,459,359
337755,360,461,367
337756,365,460,376
337757,370,460,385
337758,378,459,391
337759,388,458,404
337760,395,460,413
337761,395,462,415
337762,388,461,405
337763,379,461,394
337764,370,462,383
337765,361,461,371
337766,357,460,364
337767,350,460,355
337768,345,460,349
337769,334,461,335
337770,327,459,326
337771,327,460,328
337772,334,462,337
337773,342,460,345
337774,351,461,359
337775,360,460,370
337776,364,458,377
337777,370,460,385
337778,377,460,392
337779,388,461,407
337780,393,461,415
337781,393,461,415
337782,388,462,406
337783,379,462,395
337784,369,461,382
337785,362,461,372
337786,357,460,364
337787,349,461,356
337788,345,461,348
337789,335,460,336
337790,327,460,327
337791,328,461,327
337792,332,459,335
337793,341,460,345
337794,351,460,359
337795,360,461,370
337796,366,460,375
337797,372,462,384
337798,376,462,391
337799,387,462,404
337800,394,460,415
337801,395,459,416
337802,389,460,406
337803,379,462,394
337804,369,462,380
337805,363,462,369
337806,356,461,363
337807,349,462,356
337808,344,457,347
337809,334,460,335
337810,327,460,326
337811,327,460,327
337812,334,459,335
337813,341,459,346
337814,351,460,360
337815,359,457,369
337816,366,460,376
337817,372,461,385
337818,378,461,392
337819,387,465,405
337820,395,461,415
337821,394,462,415
337822,389,460,405
337823,380,462,395
337824,369,461,381
337825,362,461,371
337826,355,461,364
337827,350,461,356
337828,344,460,348
337829,334,459,337
337830,328,465,327
337831,325,458,326
337832,335,460,336
337833,342,460,345
337834,350,457,357
337835,361,462,367
337836,365,457,376
337837,373,460,386
337838,377,460,391
337839,387,462,405
337840,394,462,415
337841,394,462,413
337842,388,461,405
337843,381,461,394
337844,370,460,381
337845,361,461,372
337846,355,460,363
337847,349,460,355
337848,345,460,349
337849,333,460,335
337850,327,458,327
337851,327,460,328
337852,334,459,335
337853,342,461,347
337854,352,457,359
337855,360,461,370
337856,364,462,375
337857,372,461,385
337858,377,461,392
337859,389,460,405
337860,394,462,416
337861,393,464,415
337862,388,463,403
337863,380,462,394
337864,368,461,382
337865,361,461,371
337866,356,462,363
337867,348,460,354
337868,346,460,347
337869,334,461,336
337870,329,460,326
337871,328,458,328
337872,334,460,336
337873,342,460,346
337874,353,460,359
337875,360,461,370
337876,365,461,376
337877,372,460,384
337878,377,461,392
337879,389,461,407
337880,393,462,414
337881,394,462,414
337882,387,460,406
337883,379,463,393
337884,369,461,381
337885,362,462,372
337886,356,460,364
337887,350,464,357
337888,345,459,348
337889,334,458,335
337890,328,460,326
337891,327,460,328
337892,334,460,335
337893,342,460,346
337894,351,464,359
337895,360,461,368
337896,365,460,377
337897,372,461,386
337898,377,462,392
337899,388,462,407
337900,395,464,416
337901,396,462,414
337902,388,463,406
337903,381,464,396
337904,370,462,381
337905,361,461,373
337906,357,461,364
337907,350,462,356
337908,346,458,349
337909,335,458,336
337910,328,459,326
337911,326,461,327
337912,334,458,335
337913,342,462,344
337914,352,462,359
337915,360,461,368
337916,366,461,375
337917,373,460,385
337918,377,461,392
337919,388,460,406
337920,395,463,416
337921,394,461,414
337922,388,461,405
337923,380,463,395
337924,370,464,383
337925,363,462,372
337926,357,463,364
337927,350,461,356
337928,346,458,351
337929,335,461,336
337930,328,460,326
337931,328,460,328
337932,335,460,335
337933,343,460,346
337934,352,461,358
337935,359,458,368
337936,364,457,376
337937,372,459,384
337938,377,461,391
337939,388,462,405
337940,394,462,413
337941,395,462,413
337942,387,463,406
337943,380,463,396
337944,369,462,384
337945,361,462,372
337946,356,463,364
337947,350,462,356
337948,345,461,350
337949,335,460,337
337950,328,460,328
337951,328,460,327
337952,335,465,336
337953,341,462,345
337954,351,461,359
337955,359,463,369
337956,366,462,377
337957,372,462,386
337958,376,462,392
337959,388,461,403
337960,393,460,415
337961,395,461,415
337962,388,462,406
337963,380,460,396
337964,369,462,381
337965,363,461,372
337966,357,461,366
337967,349,462,356
337968,345,458,349
337969,333,461,336
337970,327,460,326
337971,327,460,327
337972,333,461,335
337973,342,461,346
337974,351,461,360
337975,360,461,369
337976,365,460,374
337977,372,461,385
337978,377,462,392
337979,387,462,405
337980,396,463,416
337981,393,462,415
337982,387,461,406
337983,380,461,393
337984,371,462,382
337985,362,461,372
337986,356,461,363
337987,349,460,356
337988,346,459,349
337989,333,459,334
337990,328,461,327
337991,327,460,327
337992,334,459,335
337993,340,458,346
337994,351,461,361
337995,359,461,369
337996,365,460,376
337997,372,461,384
337998,375,462,391
337999,386,459,405
338000,393,463,413
338001,394,462,414
338002,387,463,405
338003,381,465,395
338004,370,462,382
338005,363,461,373
338006,356,460,366
338007,349,462,356
338008,345,457,347
338009,335,459,335
338010,326,461,327
338011,327,459,326
338012,335,458,335
338013,341,460,345
338014,352,459,358
338015,359,461,370
338016,365,459,377
338017,373,461,384
338018,376,460,391
338019,387,463,405
338020,395,460,415
338021,396,460,413
338022,389,462,406
338023,381,462,397
338024,370,461,383
338025,359,461,371
338026,356,461,363
338027,349,456,356
338028,344,460,349
338029,335,459,335
338030,327,459,326
338031,327,460,327
338032,334,459,335
338033,341,459,347
338034,353,458,359
338035,359,459,368
338036,365,457,375
338037,372,461,384
338038,376,462,389
338039,385,463,404
338040,394,461,413
338041,394,462,415
338042,387,460,405
338043,381,462,396
338044,369,461,382
338045,362,461,372
338046,357,462,365
338047,349,457,355
338048,346,459,347
338049,335,459,335
338050,329,460,327
338051,328,460,327
338052,333,460,335
338053,340,459,346
338054,351,460,358
338055,359,458,368
338056,364,462,376
338057,372,462,383
338058,377,461,392
338059,388,462,406
338060,394,462,412
338061,395,462,415
338062,388,461,405
338063,381,463,396
338064,371,460,382
338065,362,462,372
338066,356,461,366
338067,348,462,355
338068,345,461,349
338069,334,460,337
338070,328,459,328
338071,326,461,327
338072,334,460,334
338073,343,462,345
338074,353,462,358
338075,359,462,369
338076,365,460,377
338077,373,460,385
338078,376,460,391
338079,386,461,408
338080,394,461,416
338081,394,459,414
338082,389,463,404
338083,382,463,394
338084,370,462,381
338085,361,461,372
338086,356,460,365
338087,351,461,355
338088,345,459,349
338089,334,460,335
338090,328,460,327
338091,328,459,327
338092,334,460,335
338093,341,461,346
338094,352,461,359
338095,359,458,368
338096,365,462,375
338097,372,461,384
338098,378,464,393
338099,388,462,405
338100,394,460,415
338101,397,460,414
338102,388,462,407
338103,380,462,393
338104,370,463,382
338105,361,460,372
338106,357,462,365
338107,350,462,355
338108,345,459,350
338109,335,461,335
338110,328,460,327
338111,326,458,326
338112,334,460,335
338113,341,460,344
338114,351,460,357
338115,357,460,369
338116,364,460,376
338117,370,460,384
338118,374,460,390
338119,385,462,403
338120,394,462,413
338121,394,463,414
338122,387,461,405
338123,379,459,395
338124,370,460,380
338125,362,461,371
338126,357,461,365
338127,350,461,355
338128,344,457,349
338129,334,458,335
338130,326,460,326
338131,325,460,326
338132,332,460,335
338133,340,458,346
338134,350,458,358
338135,359,461,367
338136,364,460,374
338137,372,463,385
338138,376,463,392
338139,386,462,404
338140,394,461,414
338141,396,462,414
338142,387,461,404
338143,379,461,396
338144,369,460,381
338145,361,461,372
338146,356,461,366
338147,349,462,355
338148,344,459,349
338149,335,460,334
338150,328,460,326
338151,327,459,326
338152,333,458,334
338153,342,459,344
338154,350,461,359
338155,359,460,370
338156,364,459,376
338157,369,460,383
338158,376,461,392
338159,386,459,406
338160,393,462,413
338161,396,462,416
338162,388,461,406
338163,379,463,396
338164,370,461,382
338165,361,460,373
338166,356,461,365
338167,350,461,356
338168,346,461,351
338169,333,461,337
338170,328,458,327
338171,327,459,325
338172,332,459,335
338173,340,458,346
338174,351,458,358
338175,360,462,368
338176,364,460,376
338177,371,460,383
338178,376,460,391
338179,387,459,405
338180,393,462,413
338181,394,460,414
338182,386,462,405
338183,381,462,393
338184,369,460,381
338185,362,460,372
338186,357,462,363
338187,349,459,356
338188,344,456,349
338189,333,460,335
338190,328,460,325
338191,326,459,326
338192,334,460,333
338193,341,460,345
338194,352,458,360
338195,359,460,368
338196,364,459,375
338197,371,458,385
338198,376,461,391
338199,387,459,404
338200,394,460,414
338201,395,459,413
338202,388,461,406
338203,380,460,393
338204,371,460,381
338205,361,461,372
338206,356,459,364
338207,350,461,356
338208,343,460,348
338209,334,461,335
338210,327,459,327
338211,326,456,326
338212,332,460,334
338213,341,462,345
338214,351,460,359
338215,359,461,369
338216,363,460,377
338217,371,461,385
338218,378,461,391
338219,388,461,405
338220,393,462,413
338221,396,462,415
338222,387,461,406
338223,381,464,395
338224,370,461,381
338225,362,461,372
338226,357,461,364
338227,349,460,356
338228,345,460,351
338229,335,459,335
338230,327,458,327
338231,329,458,326
338232,334,459,333
338233,341,459,346
338234,353,461,359
338235,358,460,368
338236,363,462,374
338237,371,458,384
338238,376,462,390
338239,388,460,406
338240,393,462,414
338241,395,463,416
338242,390,462,405
338243,380,463,396
338244,370,462,382
338245,362,462,372
338246,358,462,366
338247,350,461,357
338248,347,461,350
338249,333,460,335
338250,328,462,327
338251,327,461,326
338252,334,461,336
338253,340,460,345
338254,351,460,359
338255,359,462,367
338256,365,459,376
338257,372,462,385
338258,376,462,391
338259,387,461,403
338260,393,463,414
338261,396,463,416
338262,389,461,407
338263,383,461,397
338264,369,461,383
338265,362,462,373
338266,356,462,366
338267,350,462,357
338268,345,461,351
338269,335,462,335
338270,328,460,327
338271,326,461,326
338272,335,462,336
338273,342,456,345
338274,351,461,358
338275,360,458,369
338276,364,465,375
338277,372,463,385
338278,377,462,391
338279,385,463,406
338280,394,462,415
338281,395,460,414
338282,388,464,407
338283,382,463,396
338284,371,461,383
338285,363,461,373
338286,358,460,366
338287,351,462,357
338288,346,463,350
338289,335,461,336
338290,329,461,328
338291,328,460,325
338292,333,460,335
338293,341,462,345
338294,352,463,359
338295,359,461,369
338296,365,460,375
338297,372,462,385
338298,375,462,391
338299,387,463,406
338300,395,460,415
338301,397,461,416
338302,389,460,404
338303,381,461,397
338304,369,461,383
338305,362,462,372
338306,358,462,366
338307,351,461,357
338308,346,459,349
338309,334,460,335
338310,327,461,326
338311,328,460,326
338312,333,460,334
338313,341,461,345
338314,351,460,358
338315,358,462,368
338316,362,462,373
338317,371,461,385
338318,376,464,391
338319,386,461,404
338320,394,464,413
338321,395,463,416
338322,390,462,407
338323,381,461,396
338324,370,462,383
338325,363,462,370
338326,358,460,364
338327,350,462,356
338328,347,459,351
338329,336,461,336
338330,327,460,327
338331,327,461,327
338332,335,458,334
338333,340,461,344
338334,351,464,357
338335,361,461,367
338336,365,461,376
338337,372,462,385
338338,376,461,392
338339,386,462,406
338340,395,462,415
338341,395,462,414
338342,389,462,406
338343,381,462,397
338344,372,463,382
338345,363,459,372
338346,357,460,366
338347,350,460,355
338348,346,461,348
338349,335,461,335
338350,329,460,328
338351,327,461,326
338352,334,459,336
338353,341,461,345
338354,351,461,359
338355,361,461,368
338356,366,461,376
338357,372,461,385
338358,376,462,391
338359,387,461,405
338360,396,462,415
338361,396,463,416
338362,390,466,407
338363,382,461,395
338364,369,462,384
338365,361,461,373
338366,359,462,365
338367,351,461,358
338368,345,461,350
338369,335,460,336
338370,329,462,327
338371,326,463,326
338372,333,459,336
338373,340,461,345
338374,350,461,358
338375,359,461,367
338376,365,462,375
338377,371,461,384
338378,377,462,390
338379,388,464,405
338380,394,461,415
338381,396,462,418
338382,389,463,406
338383,381,462,398
338384,369,463,383
338385,362,462,373
338386,356,461,365
338387,349,461,357
338388,344,460,351
338389,335,462,337
338390,328,459,327
338391,327,456,326
338392,335,460,335
338393,340,461,345
338394,352,458,358
338395,358,457,369
338396,364,461,376
338397,371,462,384
338398,376,461,392
338399,387,461,406
338400,393,461,415
338401,393,463,415
338402,389,462,405
338403,380,461,396
338404,372,462,384
338405,361,459,371
338406,355,462,365
338407,351,461,355
338408,345,460,349
338409,335,460,336
338410,329,459,327
338411,326,460,325
338412,334,460,335
338413,340,459,344
338414,350,459,358
338415,359,458,368
338416,364,460,376
338417,372,461,383
338418,377,460,391
338419,386,463,404
338420,393,463,413
338421,394,463,413
338422,390,460,406
338423,383,462,396
338424,371,462,382
338425,365,461,372
338426,357,461,364
338427,351,460,356
338428,346,461,350
338429,334,461,335
338430,328,461,326
338431,326,460,326
338432,332,460,335
338433,342,460,344
338434,351,461,358
338435,359,459,369
338436,365,457,375
338437,371,461,383
338438,376,462,389
338439,387,460,403
338440,393,462,413
338441,396,463,414
338442,389,460,405
338443,379,461,396
338444,370,461,382
338445,362,460,372
338446,356,461,364
338447,349,462,355
338448,345,461,348
338449,335,459,337
338450,329,461,326
338451,326,461,325
338452,333,461,334
338453,341,461,344
338454,351,459,358
338455,359,461,369
338456,365,462,377
338457,372,461,384
338458,376,461,390
338459,387,463,404
338460,394,461,412
338461,396,463,415
338462,389,463,405
338463,381,462,397
338464,370,462,383
338465,364,463,373
338466,358,462,366
338467,349,460,356
338468,344,462,350
338469,336,460,336
338470,328,458,328
338471,327,460,326
338472,334,460,335
338473,341,460,345
338474,351,461,358
338475,359,458,368
338476,366,461,375
338477,372,462,385
338478,377,459,391
338479,388,463,406
338480,394,463,413
338481,394,459,415
338482,389,462,406
338483,382,462,396
338484,372,462,383
338485,363,462,372
338486,359,461,366
338487,351,461,357
338488,347,462,350
338489,335,459,337
338490,328,461,328
338491,326,461,325
338492,334,460,336
338493,341,457,345
338494,351,461,358
338495,359,461,368
338496,364,462,375
338497,372,461,383
338498,375,462,390
338499,387,462,406
338500,393,463,414
338501,395,462,416
338502,390,462,405
338503,381,462,396
338504,370,463,381
338505,364,461,371
338506,357,462,366
338507,351,460,356
338508,347,459,349
338509,335,460,335
338510,328,461,328
338511,327,460,327
338512,334,459,335
338513,339,460,344
338514,350,461,358
338515,359,461,369
338516,365,461,374
338517,372,461,383
338518,376,460,390
338519,387,462,407
338520,394,464,414
338521,395,461,416
338522,388,461,408
338523,382,461,395
338524,369,464,384
338525,364,461,372
338526,356,463,366
338527,351,460,357
338528,346,463,351
338529,335,463,336
338530,329,460,327
338531,326,461,326
338532,332,461,334
338533,340,460,344
338534,351,461,358
338535,358,458,368
338536,363,459,374
338537,371,462,385
338538,373,462,392
338539,387,462,405
338540,393,461,415
338541,396,463,415
338542,390,463,407
338543,382,461,396
338544,371,463,382
338545,364,463,373
338546,358,462,366
338547,351,460,355
338548,346,463,351
338549,334,461,338
338550,329,460,328
338551,325,460,326
338552,333,460,335
338553,340,460,343
338554,350,461,358
338555,359,461,367
338556,365,462,375
338557,371,460,384
338558,375,462,391
338559,386,463,405
338560,394,460,414
338561,396,462,415
338562,390,462,407
338563,382,463,398
338564,371,463,382
338565,365,462,373
338566,358,462,366
338567,352,462,358
338568,346,461,351
338569,336,460,337
338570,329,461,329
338571,326,462,325
338572,334,458,336
338573,340,460,344
338574,350,462,358
338575,359,459,366
338576,366,463,374
338577,371,462,385
338578,377,462,391
338579,385,460,405
338580,394,464,414
338581,395,464,417
338582,390,463,407
338583,381,463,397
338584,371,463,384
338585,364,459,374
338586,360,460,366
338587,351,463,358
338588,345,462,349
338589,335,462,336
338590,329,461,327
338591,327,461,328
338592,332,462,335
338593,341,461,345
338594,352,463,357
338595,358,461,367
338596,363,461,373
338597,371,462,384
338598,377,462,391
338599,387,462,404
338600,393,462,413
338601,397,460,415
338602,390,464,407
338603,383,461,397
338604,371,462,384
338605,364,461,372
338606,357,462,366
338607,352,462,358
338608,347,462,351
338609,336,458,338
338610,329,462,329
338611,328,462,327
338612,335,461,335
338613,341,460,346
338614,351,459,359
338615,360,462,369
338616,366,461,376
338617,372,462,385
338618,377,462,392
338619,388,461,405
338620,395,463,413
338621,395,463,416
338622,391,463,407
338623,383,465,397
338624,371,463,385
338625,365,461,374
338626,358,463,367
338627,348,462,357
338628,343,463,352
338629,335,462,337
338630,329,462,328
338631,326,459,326
338632,334,462,335
338633,341,462,345
338634,352,460,359
338635,360,461,368
338636,365,461,375
338637,372,462,385
338638,376,463,391
338639,387,462,406
338640,395,460,413
338641,396,463,416
338642,390,464,408
338643,381,463,398
338644,371,464,382
338645,364,462,374
338646,358,462,367
338647,350,462,356
338648,347,462,352
338649,336,461,337
338650,329,462,328
338651,328,461,326
338652,335,461,336
338653,341,461,345
338654,351,461,358
338655,359,462,370
338656,365,462,375
338657,373,463,386
338658,377,463,391
338659,388,462,406
338660,393,464,415
338661,398,464,418
338662,390,464,408
338663,384,464,398
338664,372,462,385
338665,363,463,373
338666,356,463,365
338667,350,461,358
338668,346,461,351
338669,336,461,337
338670,329,458,329
338671,327,462,327
338672,334,463,335
338673,340,463,344
338674,351,461,359
338675,358,462,369
338676,364,464,375
338677,371,462,386
338678,377,463,392
338679,389,464,405
338680,396,464,414
338681,396,463,416
338682,389,462,408
338683,384,459,397
338684,372,461,385
338685,365,460,374
338686,357,462,367
338687,352,461,356
338688,346,462,352
338689,336,461,338
338690,329,462,329
338691,328,460,327
338692,333,463,335
338693,341,461,345
338694,352,462,359
338695,359,462,369
338696,366,462,376
338697,373,462,386
338698,378,462,392
338699,388,463,406
338700,392,463,415
338701,397,463,417
338702,390,463,407
1742069792313,NEW REP,,
338703,382,462,399
338704,372,464,384
338705,365,464,375
338706,359,463,368
338707,351,462,358
338708,345,462,351
338709,335,460,337
338710,329,462,329
338711,327,462,327
338712,333,462,335
338713,342,461,345
338714,352,462,359
338715,359,461,369
338716,365,462,375
338717,375,463,385
338718,378,462,391
338719,388,463,405
338720,392,463,412
338721,396,463,416
338722,388,463,406
338723,383,464,397
338724,373,466,384
338725,364,465,376
338726,358,465,366
338727,350,461,358
338728,346,460,352
338729,336,462,338
338730,330,463,330
338731,327,461,326
338732,334,459,336
338733,341,460,345
338734,351,459,358
338735,359,459,367
338736,365,462,376
338737,372,463,383
338738,378,463,390
338739,388,464,404
338740,395,462,415
338741,396,460,416
338742,391,463,408
338743,383,463,398
338744,372,463,384
338745,365,464,373
338746,360,462,367
338747,352,466,358
338748,346,460,351
338749,335,460,337
338750,330,461,329
338751,329,459,326
338752,333,461,335
338753,340,462,343
338754,349,461,358
338755,359,461,367
338756,364,462,376
338757,372,462,384
338758,376,462,391
338759,387,466,405
338760,394,462,414
338761,396,462,415
338762,387,459,408
338763,382,464,397
338764,372,462,384
338765,364,463,375
338766,358,462,366
338767,352,461,358
338768,347,461,352
338769,335,461,337
338770,329,459,328
338771,328,462,325
338772,333,460,333
338773,341,461,345
338774,351,458,356
338775,358,462,367
338776,366,463,376
338777,370,462,385
338778,377,462,392
338779,386,462,405
338780,392,464,414
338781,395,461,416
338782,390,463,407
338783,382,463,397
338784,370,462,382
338785,363,462,372
338786,357,461,366
338787,350,460,356
338788,346,460,350
338789,338,462,337
338790,330,459,331
338791,327,461,327
338792,333,459,334
338793,339,460,343
338794,350,460,358
338795,358,461,367
338796,364,461,376
338797,372,461,384
338798,375,460,389
338799,385,463,405
338800,394,463,414
338801,396,463,415
338802,389,463,407
338803,382,462,397
338804,370,463,384
338805,363,463,375
338806,358,463,367
338807,351,461,359
338808,347,462,352
338809,335,461,338
338810,328,462,329
338811,328,462,327
338812,334,459,335
338813,341,461,345
338814,352,462,357
338815,358,462,368
338816,364,463,376
338817,371,462,384
338818,377,461,389
338819,386,462,404
338820,394,461,413
338821,395,462,416
338822,391,462,408
338823,382,462,398
338824,372,459,384
338825,363,462,373
338826,357,461,367
338827,349,463,356
338828,346,461,351
338829,335,462,337
338830,330,460,327
338831,328,460,327
338832,332,460,333
338833,339,458,344
338834,350,460,359
338835,358,460,365
338836,365,461,374
338837,371,459,384
338838,375,461,389
338839,387,462,404
338840,393,461,413
338841,394,463,414
338842,390,464,405
338843,382,464,396
338844,371,463,384
338845,363,463,373
338846,358,460,367
338847,351,460,358
338848,347,461,350
338849,336,460,337
338850,329,460,329
338851,327,461,325
338852,331,460,335
338853,339,460,343
338854,352,461,357
338855,357,460,366
338856,363,461,374
338857,371,462,385
338858,376,460,390
338859,387,462,404
338860,394,465,414
338861,396,464,416
338862,389,463,408
338863,382,462,399
338864,372,463,385
338865,365,464,374
338866,359,463,368
338867,352,463,356
338868,347,460,351
338869,336,463,339
338870,330,462,329
338871,328,462,328
338872,334,462,336
338873,342,462,345
338874,352,463,360
338875,360,462,369
338876,365,464,376
338877,371,461,385
338878,378,465,391
338879,387,465,407
338880,393,463,414
338881,396,464,417
338882,390,461,408
338883,384,466,399
338884,373,465,385
338885,366,463,376
338886,360,463,368
338887,351,464,358
338888,346,464,352
338889,336,464,339
338890,330,463,329
338891,329,463,329
338892,333,463,337
338893,344,462,345
338894,352,465,359
338895,360,463,369
338896,366,463,377
338897,372,463,386
338898,378,465,392
338899,389,466,407
338900,396,465,416
338901,400,464,417
338902,391,466,411
338903,384,463,400
338904,373,465,387
338905,365,465,376
338906,360,465,368
338907,354,465,359
338908,348,465,352
338909,339,465,339
338910,331,465,331
338911,329,466,329
338912,335,466,337
338913,344,464,345
338914,353,466,359
338915,361,467,370
338916,366,463,377
338917,375,463,387
338918,379,464,394
338919,388,463,407
338920,395,464,416
338921,398,468,419
338922,393,467,409
338923,385,463,401
338924,372,466,387
338925,367,467,377
338926,361,463,368
338927,353,463,361
338928,347,464,354
338929,338,462,339
338930,332,464,330
338931,331,462,329
338932,335,462,335
338933,342,464,346
338934,352,464,361
338935,362,464,369
338936,363,465,377
338937,373,461,386
338938,379,463,392
338939,386,461,405
338940,396,462,412
338941,396,465,418
338942,390,468,408
338943,383,464,398
338944,373,464,386
338945,366,464,375
338946,361,464,369
338947,353,461,358
338948,348,461,353
338949,337,460,339
338950,330,463,329
338951,328,463,327
338952,335,462,334
338953,342,462,345
338954,352,464,359
338955,359,463,369
338956,366,463,376
338957,371,465,386
338958,377,465,391
338959,388,463,407
338960,396,463,415
338961,397,466,418
338962,391,466,410
338963,384,464,401
338964,373,464,385
338965,365,464,375
338966,358,465,368
338967,352,461,358
338968,348,463,353
338969,338,464,340
338970,331,463,331
338971,329,461,328
338972,332,462,335
338973,339,461,344
338974,351,462,358
338975,358,462,368
338976,367,463,378
338977,373,463,385
338978,377,464,392
338979,387,464,406
338980,394,465,414
338981,398,464,417
338982,391,465,410
338983,384,466,400
338984,374,462,385
338985,366,464,376
338986,361,463,368
338987,352,462,359
338988,348,463,353
338989,337,462,339
338990,331,463,331
338991,327,463,327
338992,334,463,336
338993,341,463,345
338994,352,463,358
338995,359,463,369
338996,365,460,375
338997,372,463,387
338998,376,464,391
338999,386,465,404
339000,393,459,413
339001,397,462,417
339002,391,465,408
339003,383,464,400
339004,373,464,384
339005,364,463,376
339006,359,463,368
339007,353,463,357
339008,347,461,351
339009,338,463,339
339010,331,462,329
339011,328,461,327
339012,333,461,336
339013,340,461,345
339014,352,461,359
339015,359,462,369
339016,365,463,376
339017,372,463,385
339018,378,461,391
339019,387,462,405
339020,395,465,416
339021,397,463,417
339022,390,462,408
339023,382,464,398
339024,372,461,384
339025,365,463,374
339026,360,461,367
339027,353,462,357
339028,347,463,351
339029,338,461,339
339030,329,463,330
339031,328,462,329
339032,335,461,336
339033,342,461,344
339034,353,461,359
339035,359,459,368
339036,365,462,376
339037,372,463,385
339038,377,462,391
339039,385,462,406
339040,393,464,414
339041,397,463,419
339042,391,461,409
339043,383,463,400
339044,372,464,385
339045,364,464,375
339046,359,461,367
339047,352,462,358
339048,347,459,351
339049,336,462,335
339050,330,461,328
339051,326,462,327
339052,333,462,334
339053,340,459,345
339054,351,460,357
339055,358,462,368
339056,364,462,374
339057,371,461,384
339058,375,460,389
339059,386,463,403
339060,393,464,414
339061,396,462,416
339062,390,463,408
339063,381,461,399
339064,371,464,384
339065,365,460,377
339066,358,463,367
339067,351,462,357
339068,346,462,351
339069,336,460,337
339070,332,461,329
339071,327,461,326
339072,332,461,334
339073,339,460,343
339074,350,461,358
339075,358,459,367
339076,364,461,374
339077,371,461,384
339078,376,461,388
339079,384,461,402
339080,393,459,414
339081,395,461,416
339082,389,463,406
339083,383,462,398
339084,371,462,384
339085,363,461,373
339086,357,462,364
339087,350,460,357
339088,346,460,352
339089,336,462,337
339090,329,461,328
339091,327,460,326
339092,331,459,334
339093,340,461,344
339094,349,459,355
339095,357,461,367
339096,364,458,374
339097,370,460,384
339098,375,459,391
339099,385,460,403
339100,392,462,413
339101,395,462,414
339102,388,462,406
339103,381,462,396
339104,371,462,384
339105,362,461,374
339106,356,462,366
339107,349,460,358
339108,346,459,352
339109,335,461,337
339110,329,456,328
339111,327,457,325
339112,332,459,334
339113,338,461,342
339114,352,462,358
339115,357,459,365
339116,363,460,373
339117,370,462,382
339118,376,462,388
339119,385,460,403
339120,393,461,413
339121,395,462,415
339122,390,461,407
339123,382,463,397
339124,371,463,383
339125,364,461,373
339126,358,463,367
339127,349,461,357
339128,347,462,351
339129,336,460,339
339130,330,461,329
339131,326,460,326
339132,332,460,334
339133,338,457,343
339134,349,461,355
339135,357,458,364
339136,365,462,374
339137,370,460,383
339138,375,462,390
339139,385,463,403
339140,394,461,412
339141,397,461,416
339142,390,461,407
339143,382,463,397
339144,372,462,384
339145,364,462,375
339146,359,458,367
339147,352,462,357
339148,345,462,352
339149,338,461,338
339150,329,460,328
339151,327,460,326
339152,333,460,335
339153,339,461,343
339154,351,461,357
339155,357,461,367
339156,364,461,374
339157,370,464,383
339158,375,461,390
339159,386,462,404
339160,393,464,413
339161,396,463,417
339162,391,463,408
339163,382,464,398
339164,371,463,386
339165,363,463,375
339166,358,463,367
339167,352,463,358
339168,345,463,351
339169,336,460,340
339170,330,462,330
339171,328,462,326
339172,332,462,336
339173,340,461,343
339174,349,463,358
339175,358,462,368
339176,365,463,377
339177,372,464,386
339178,377,463,390
339179,387,463,406
339180,394,464,413
339181,395,462,417
339182,392,464,409
339183,383,464,400
339184,373,464,386
339185,365,464,376
339186,360,460,368
339187,351,462,358
339188,348,462,354
339189,336,463,339
339190,330,460,330
339191,328,462,328
339192,333,459,335
339193,342,462,345
339194,351,462,358
339195,357,461,367
339196,364,460,374
339197,371,464,384
339198,380,465,391
339199,388,464,404
339200,394,463,414
339201,396,463,416
339202,392,464,410
339203,385,458,400
339204,373,463,386
339205,366,460,376
339206,361,462,368
339207,353,460,360
339208,347,460,353
339209,336,463,339
339210,330,462,330
339211,327,462,327
339212,334,462,335
339213,340,462,345
339214,350,462,357
339215,357,463,365
339216,366,461,374
339217,371,460,383
339218,375,462,390
339219,386,463,404
339220,392,462,413
339221,396,465,416
339222,390,464,409
339223,384,462,399
339224,370,464,385
339225,365,462,376
339226,358,461,368
339227,352,461,357
339228,346,459,352
339229,337,461,338
339230,331,461,330
339231,327,460,327
339232,333,462,333
339233,339,461,344
339234,349,460,357
339235,357,461,368
339236,363,460,374
339237,372,461,383
339238,376,462,389
339239,386,460,403
339240,393,464,413
339241,396,463,415
339242,388,461,407
339243,382,462,398
339244,372,461,383
339245,364,461,374
339246,358,462,367
339247,351,460,357
339248,345,462,351
339249,335,458,337
339250,328,459,329
339251,325,460,325
339252,332,459,334
339253,340,460,342
339254,347,458,356
339255,356,460,364
339256,362,458,372
339257,368,460,382
339258,373,459,388
339259,383,460,400
339260,390,461,409
339261,393,457,411
339262,387,456,404
339263,379,459,396
339264,369,459,381
339265,361,460,372
339266,356,459,364
339267,348,457,355
339268,344,457,348
339269,335,458,335
339270,329,455,327
339271,325,458,323
339272,330,456,332
339273,336,457,339
339274,347,455,355
339275,353,455,363
339276,359,457,371
339277,368,457,380
339278,373,457,387
339279,384,461,400
339280,390,458,410
339281,392,458,413
339282,387,459,404
339283,380,459,396
339284,369,457,382
339285,362,457,370
339286,354,457,363
339287,347,460,354
339288,343,457,348
339289,334,455,335
339290,327,457,326
339291,323,456,323
339292,328,457,330
339293,336,453,339
339294,347,458,354
339295,354,457,362
339296,361,453,371
339297,367,458,382
339298,372,458,387
339299,381,458,399
339300,389,458,408
339301,392,457,414
339302,385,457,406
339303,379,459,396
339304,369,457,382
339305,360,460,371
339306,356,458,365
339307,349,458,353
339308,343,457,349
339309,335,458,335
339310,328,455,325
339311,324,457,323
339312,329,456,331
339313,338,457,338
339314,348,456,355
339315,355,453,363
339316,361,457,371
339317,368,458,381
339318,373,458,386
339319,382,460,400
339320,391,458,409
339321,392,459,412
339322,389,459,404
339323,381,459,395
339324,370,458,382
339325,364,459,372
339326,358,458,364
339327,349,461,355
339328,345,459,348
339329,335,458,336
339330,327,457,326
339331,325,456,322
339332,331,457,331
339333,338,457,341
339334,347,458,354
339335,352,458,363
339336,361,460,371
339337,370,458,379
339338,373,458,387
339339,383,460,401
339340,390,458,410
339341,394,460,413
339342,388,458,406
339343,381,461,395
339344,370,459,384
339345,364,460,372
339346,356,458,366
339347,347,458,356
339348,345,458,349
339349,335,459,336
339350,328,458,327
339351,325,458,324
339352,330,457,333
339353,337,458,341
339354,348,459,355
339355,355,457,364
339356,361,458,371
339357,369,461,382
339358,374,460,387
339359,384,461,402
339360,390,461,411
339361,394,462,414
339362,388,462,405
339363,382,462,396
339364,371,458,384
339365,364,460,373
339366,357,458,364
339367,350,460,357
339368,345,460,350
339369,335,459,336
339370,328,458,328
339371,327,458,325
339372,330,458,334
339373,338,459,342
339374,348,460,355
339375,357,457,366
339376,364,461,374
339377,371,463,384
339378,375,462,390
339379,386,460,404
339380,392,463,413
339381,394,463,416
339382,391,461,408
339383,384,458,399
339384,371,463,384
339385,365,461,376
339386,358,461,367
339387,350,462,358
339388,347,459,353
339389,337,461,337
339390,329,459,330
339391,326,462,326
339392,333,459,334
339393,339,462,342
339394,349,460,357
339395,356,463,365
339396,364,460,373
339397,370,459,382
339398,375,462,387
339399,384,462,403
339400,391,462,411
339401,395,461,415
339402,389,463,408
339403,383,462,399
339404,371,461,384
339405,365,461,374
339406,358,461,368
339407,351,458,357
339408,346,469,351
339409,336,462,337
339410,330,461,330
339411,325,459,326
339412,331,458,334
339413,339,463,343
339414,349,460,358
339415,357,464,366
339416,365,463,377
339417,372,465,384
339418,377,465,390
339419,388,466,406
339420,395,465,416
339421,398,464,419
339422,392,465,410
339423,385,464,400
339424,374,463,386
339425,366,463,376
339426,359,462,367
339427,351,461,358
339428,346,461,353
339429,337,461,338
339430,329,461,328
339431,325,461,326
339432,331,459,334
339433,339,461,342
339434,349,461,357
339435,358,463,368
339436,363,463,375
339437,371,463,384
339438,375,462,390
339439,386,463,403
339440,393,460,413
339441,395,462,416
339442,391,461,409
339443,386,464,400
339444,372,465,386
339445,366,463,377
339446,361,467,370
339447,355,464,360
339448,350,463,356
339449,341,467,342
339450,334,467,332
339451,331,465,330
339452,336,467,338
339453,344,470,348
339454,354,466,361
339455,363,467,371
339456,368,469,380
339457,375,470,389
339458,380,468,395
339459,390,467,409
339460,397,468,418
339461,402,469,424
339462,394,470,413
339463,387,469,403
339464,377,470,390
339465,369,469,380
339466,363,467,372
339467,355,467,361
339468,349,467,356
339469,341,467,342
339470,334,468,335
339471,330,467,331
339472,335,468,339
339473,343,469,349
339474,355,468,362
339475,363,471,372
339476,370,473,382
339477,377,473,392
339478,383,472,399
339479,393,476,413
339480,402,478,423
339481,406,478,426
339482,400,479,420
339483,394,480,411
339484,383,476,397
339485,377,473,386
339486,369,475,377
339487,360,474,369
339488,357,473,362
339489,345,470,348
339490,340,473,339
339491,336,471,334
339492,342,473,343
339493,348,473,350
339494,358,472,364
339495,364,474,374
339496,372,472,383
339497,379,474,393
339498,383,473,396
339499,393,472,411
339500,398,467,419
339501,402,470,423
339502,396,469,414
339503,388,470,406
339504,377,467,390
339505,370,466,380
339506,363,465,372
339507,355,465,360
339508,349,465,355
339509,340,467,341
339510,332,462,331
339511,328,462,327
339512,332,462,333
339513,340,462,344
339514,350,463,357
339515,357,463,366
339516,364,460,375
339517,372,462,383
339518,373,462,389
339519,384,462,402
339520,391,461,412
339521,395,463,415
339522,390,463,408
339523,383,463,398
339524,374,464,385
339525,365,464,377
339526,361,465,369
339527,353,464,360
339528,348,463,355
339529,338,464,340
339530,329,463,331
339531,326,459,327
339532,331,461,333
339533,340,459,344
339534,350,461,357
339535,357,461,366
339536,365,461,374
339537,369,464,384
339538,375,462,389
339539,385,464,404
339540,394,465,413
339541,396,463,418
339542,392,460,409
339543,383,464,400
339544,373,465,386
339545,367,465,377
339546,361,467,371
339547,355,469,361
339548,352,471,358
339549,342,472,344
339550,336,471,336
339551,334,470,333
339552,338,471,340
339553,345,472,350
339554,357,472,364
339555,364,473,373
339556,370,472,381
339557,376,472,391
339558,381,470,396
339559,389,468,408
339560,397,468,419
339561,400,467,420
339562,394,466,414
339563,388,468,404
339564,377,468,390
339565,371,470,381
339566,363,468,374
339567,357,470,364
339568,352,467,357
339569,342,465,344
339570,334,465,334
339571,330,466,329
339572,336,465,337
339573,344,465,347
339574,353,466,359
339575,360,468,370
339576,367,467,379
339577,375,468,389
339578,379,470,393
339579,390,469,409
339580,398,471,417
339581,402,473,421
339582,398,473,415
339583,391,473,408
339584,379,474,392
339585,374,475,384
339586,367,476,377
339587,362,477,368
339588,358,479,364
339589,350,480,353
339590,342,476,342
339591,338,474,338
339592,342,469,344
339593,348,465,350
339594,356,463,360
339595,361,458,367
339596,365,461,376
339597,371,460,384
339598,376,464,390
339599,387,462,403
339600,394,467,414
339601,397,468,419
339602,394,471,411
339603,388,469,406
339604,378,474,391
339605,374,478,383
339606,367,479,376
339607,362,480,368
339608,357,477,363
339609,346,472,347
339610,337,470,338
339611,334,468,332
339612,336,464,340
339613,345,464,347
339614,355,463,360
339615,359,463,367
339616,367,462,376
339617,371,462,385
339618,377,461,390
339619,387,462,403
339620,393,459,413
339621,396,461,415
339622,390,460,409
339623,383,460,397
339624,372,459,384
339625,364,460,374
339626,359,459,367
339627,352,460,357
339628,347,462,351
339629,337,462,339
339630,332,464,331
339631,327,465,326
339632,333,465,334
339633,341,463,344
339634,350,463,357
339635,358,458,367
339636,364,461,375
339637,370,460,385
339638,375,457,388
339639,384,458,401
339640,391,457,410
339641,394,458,413
339642,389,463,406
339643,382,463,397
339644,372,463,385
339645,365,464,377
339646,359,465,369
339647,354,465,360
339648,349,467,355
339649,341,467,344
339650,335,469,335
339651,332,466,332
339652,338,470,339
339653,344,468,348
339654,353,465,360
339655,360,462,368
339656,365,457,374
339657,369,456,383
339658,372,455,386
339659,382,458,399
339660,389,459,408
339661,393,460,413
339662,388,465,407
339663,384,462,399
339664,372,462,384
339665,363,460,373
339666,356,454,365
339667,347,451,354
339668,342,450,347
339669,331,450,332
339670,324,454,325
339671,321,454,321
339672,326,454,328
339673,334,453,338
339674,344,454,352
339675,352,454,359
339676,359,452,367
339677,363,450,376
339678,367,449,380
339679,377,448,392
339680,383,446,401
339681,385,448,406
339682,381,449,398
339683,374,450,390
339684,364,451,376
339685,358,456,368
339686,351,451,361
339687,347,454,353
339688,342,455,346
339689,331,455,333
339690,325,455,326
339691,323,456,322
339692,329,455,328
339693,335,457,339
339694,345,458,353
339695,354,456,363
339696,360,456,370
339697,365,456,381
339698,370,454,385
339699,381,455,398
339700,388,457,408
339701,391,458,412
339702,387,457,403
339703,379,459,395
339704,368,457,381
339705,362,454,371
339706,355,451,362
339707,346,451,352
339708,342,447,345
339709,329,444,329
339710,319,443,319
339711,315,443,314
339712,320,443,321
339713,329,444,330
339714,337,443,344
339715,345,446,351
339716,352,446,363
339717,360,448,372
339718,364,451,377
339719,377,453,393
339720,384,453,404
339721,388,453,408
339722,384,452,402
339723,376,450,392
339724,364,452,378
339725,358,452,368
339726,351,450,359
339727,342,449,350
339728,339,448,342
339729,329,448,330
339730,320,448,320
339731,317,447,316
339732,323,445,323
339733,329,443,330
339734,338,441,343
339735,345,443,354
339736,351,443,362
339737,358,443,370
339738,363,445,375
339739,373,449,390
339740,381,449,400
339741,386,454,407
339742,382,455,402
339743,376,455,391
339744,367,454,377
339745,357,452,367
339746,352,450,361
339747,343,447,349
339748,339,445,343
339749,328,443,329
339750,320,442,317
339751,313,441,313
339752,320,443,321
339753,327,443,329
339754,337,446,344
339755,346,448,355
339756,356,452,363
339757,361,452,374
339758,366,453,380
339759,378,454,395
339760,384,452,405
339761,388,451,408
339762,383,453,403
339763,376,452,392
339764,366,451,377
339765,357,452,368
339766,351,454,359
339767,343,451,352
339768,339,450,344
339769,331,448,331
339770,324,449,321
339771,317,448,317
339772,324,448,323
339773,329,442,332
339774,339,443,345
339775,346,442,353
339776,351,442,361
339777,358,443,370
339778,363,440,376
339779,372,445,389
339780,379,446,397
339781,384,448,402
339782,379,449,397
339783,375,452,390
339784,364,452,376
339785,357,453,368
339786,352,453,360
339787,345,452,350
339788,339,449,342
339789,328,444,329
339790,319,445,318
339791,316,445,314
339792,322,446,322
339793,329,444,333
339794,340,448,345
339795,348,448,356
339796,353,446,364
339797,360,445,372
339798,363,445,376
339799,374,444,390
339800,380,442,399
339801,384,444,404
339802,379,446,398
339803,373,446,388
339804,361,448,375
339805,355,449,365
339806,350,450,357
339807,341,448,347
339808,337,447,342
339809,328,448,329
339810,321,446,321
339811,319,448,317
339812,324,447,324
339813,330,447,332
339814,339,447,346
339815,348,449,355
339816,353,447,364
339817,361,447,373
339818,365,450,379
339819,375,450,392
339820,384,451,402
339821,389,456,407
339822,386,460,405
339823,381,461,397
339824,370,461,385
339825,364,461,374
339826,357,460,365
339827,350,457,356
339828,345,456,351
339829,334,454,335
339830,325,449,326
339831,320,444,320
339832,324,445,325
339833,330,442,333
339834,339,440,343
339835,344,441,354
339836,350,439,361
339837,357,444,369
339838,362,442,375
339839,373,445,390
339840,380,448,401
339841,386,452,404
339842,381,453,399
339843,375,452,392
339844,365,451,378
339845,357,452,368
339846,351,445,359
339847,343,450,350
339848,338,446,344
339849,328,447,330
339850,324,452,322
339851,320,452,319
339852,325,453,326
339853,333,451,336
339854,343,452,349
339855,350,453,360
339856,357,454,367
339857,365,455,375
339858,370,454,382
339859,377,453,396
339860,388,458,407
339861,392,457,412
339862,387,458,406
339863,380,459,396
339864,370,459,382
339865,364,457,374
339866,356,455,364
339867,349,457,356
339868,345,458,350
339869,335,457,337
339870,330,460,328
339871,325,460,325
339872,331,463,333
339873,339,462,344
339874,350,465,357
339875,356,461,367
339876,364,461,374
339877,368,458,382
339878,373,455,386
339879,383,458,400
339880,390,459,410
339881,393,458,414
339882,386,457,406
339883,380,456,396
339884,369,454,382
339885,360,453,371
339886,354,452,361
339887,344,452,353
339888,340,449,345
339889,331,448,331
339890,322,447,321
339891,318,445,315
339892,324,445,322
339893,329,442,332
339894,340,448,346
339895,349,452,357
339896,355,455,366
339897,364,455,376
339898,367,457,383
339899,379,458,396
339900,387,460,406
339901,391,456,412
339902,387,457,405
339903,381,455,395
339904,370,458,382
339905,364,459,373
339906,356,458,365
339907,349,456,354
339908,343,450,349
339909,333,449,333
339910,325,449,325
339911,319,446,319
339912,323,444,324
339913,329,445,331
339914,340,445,345
339915,346,446,354
339916,351,445,362
339917,359,446,372
339918,362,445,377
339919,373,444,388
339920,380,443,399
339921,383,443,402
339922,378,444,396
339923,372,447,386
339924,361,448,375
339925,356,452,366
339926,351,453,360
339927,346,453,352
339928,341,455,347
339929,332,453,334
339930,324,454,324
339931,320,453,319
339932,326,454,328
339933,336,456,338
339934,344,453,350
339935,351,452,361
339936,357,452,368
339937,364,452,375
339938,367,450,384
339939,378,449,395
339940,383,451,403
339941,387,449,407
339942,382,451,401
339943,376,451,392
339944,366,451,378
339945,358,449,367
339946,351,451,360
339947,343,449,350
339948,338,447,343
339949,330,447,329
339950,320,444,320
339951,317,451,314
339952,324,458,326
339953,336,460,340
339954,348,467,355
339955,357,467,365
339956,365,468,375
339957,373,467,385
339958,378,469,392
339959,388,464,405
339960,395,463,414
339961,397,463,417
339962,392,462,408
339963,385,460,400
339964,374,461,386
339965,365,459,376
339966,358,455,365
339967,349,456,356
339968,343,453,348
339969,332,450,335
339970,324,449,324
339971,319,445,317
339972,324,445,324
339973,328,442,331
339974,337,443,345
339975,345,441,353
339976,350,442,360
339977,357,440,370
339978,362,440,374
339979,372,445,387
339980,378,445,398
339981,384,450,404
339982,382,451,399
339983,375,453,390
339984,365,452,377
339985,357,454,367
339986,353,452,360
339987,344,451,351
339988,339,449,345
339989,330,450,332
339990,323,447,322
339991,319,449,318
339992,325,452,325
339993,331,449,334
339994,340,449,348
339995,349,449,356
339996,352,443,363
339997,358,441,372
339998,362,443,374
339999,370,440,387
340000,377,440,395
340001,381,438,399
340002,377,440,394
340003,369,439,386
340004,356,441,370
340005,351,440,360
340006,344,443,353
340007,338,443,345
340008,334,444,339
340009,326,442,326
340010,318,445,317
340011,313,440,313
340012,319,441,318
340013,324,439,329
340014,335,439,340
340015,342,441,350
340016,349,443,359
340017,356,444,370
340018,363,444,375
340019,372,447,388
340020,381,447,400
340021,385,451,407
340022,380,450,399
340023,373,445,389
340024,362,447,374
340025,356,446,365
340026,348,448,355
340027,342,445,348
340028,336,448,341
340029,327,450,332
340030,321,452,321
340031,319,452,319
340032,325,452,327
340033,334,455,335
340034,343,454,349
340035,350,450,359
340036,356,447,367
340037,361,445,372
340038,364,439,377
340039,371,439,387
340040,376,435,396
340041,377,433,397
340042,373,435,390
340043,367,438,382
340044,356,436,368
340045,348,440,359
340046,343,443,351
340047,337,443,344
340048,334,443,339
340049,326,443,327
340050,318,442,317
340051,313,439,312
340052,317,438,318
340053,323,435,324
340054,332,436,339
340055,339,436,347
340056,343,436,355
340057,351,434,364
340058,356,433,369
340059,365,432,382
340060,372,433,389
340061,374,431,394
340062,367,431,385
340063,364,436,379
340064,354,437,366
340065,348,441,359
340066,344,441,352
340067,338,445,345
340068,334,447,340
340069,327,444,328
340070,318,442,317
340071,313,439,312
340072,316,437,318
340073,321,433,324
340074,330,433,336
340075,336,431,344
340076,344,433,353
340077,350,434,361
340078,355,434,366
340079,365,433,381
340080,371,431,391
340081,372,432,393
340082,369,429,386
340083,361,427,375
340084,350,425,360
340085,342,428,352
340086,335,428,343
340087,329,429,335
340088,323,429,328
340089,314,429,316
340090,308,430,306
340091,306,430,302
340092,310,430,310
340093,317,432,319
340094,328,430,333
340095,335,427,342
340096,343,429,350
340097,347,427,359
340098,353,429,365
340099,362,430,378
340100,367,430,386
340101,372,429,392
340102,369,431,386
340103,362,431,376
340104,352,432,363
340105,345,436,356
340106,339,437,348
340107,334,439,340
340108,330,437,335
340109,322,437,323
340110,314,437,314
340111,309,437,309
340112,314,434,315
340113,322,434,323
340114,331,435,335
340115,337,434,346
340116,346,434,355
340117,352,439,365
340118,358,441,371
340119,369,445,385
340120,379,443,397
340121,382,443,401
340122,378,442,394
340123,369,439,383
340124,357,437,368
340125,349,437,360
340126,342,440,350
340127,336,440,342
340128,331,440,338
340129,322,440,324
340130,316,439,315
340131,313,440,310
340132,315,437,317
340133,322,437,324
340134,333,437,337
340135,339,437,347
340136,345,437,356
340137,353,441,365
340138,359,440,372
340139,369,444,387
340140,378,445,396
340141,384,451,404
340142,383,454,400
340143,377,453,393
340144,367,452,379
340145,357,450,368
340146,350,448,360
340147,344,449,349
340148,338,447,343
340149,328,442,329
340150,320,441,319
340151,313,439,312
340152,318,438,317
340153,322,435,324
340154,331,430,337
340155,337,431,347
340156,343,432,354
340157,351,431,362
340158,356,433,367
340159,363,435,380
340160,372,437,392
340161,377,440,398
340162,373,440,392
340163,368,440,384
340164,357,439,368
340165,349,434,358
340166,340,433,348
340167,332,432,338
340168,326,428,332
340169,317,428,318
340170,309,426,307
340171,306,426,301
340172,308,424,307
340173,315,425,317
340174,325,428,330
340175,333,428,341
340176,339,431,350
340177,347,433,360
340178,354,431,365
340179,363,431,380
340180,370,433,388
340181,374,431,393
340182,370,431,387
340183,362,429,377
340184,351,432,364
340185,344,433,354
340186,339,436,348
340187,334,438,339
340188,331,440,337
340189,326,449,328
340190,320,450,320
340191,317,450,316
340192,323,446,323
340193,328,441,329
340194,334,437,341
340195,341,434,348
340196,345,430,356
340197,351,429,362
340198,355,430,369
340199,364,433,380
340200,371,434,390
340201,377,439,395
340202,374,441,392
340203,367,444,385
340204,360,445,372
340205,354,447,362
340206,345,444,355
340207,338,442,345
340208,333,438,337
340209,323,435,324
340210,312,429,312
340211,308,426,305
340212,310,427,309
340213,316,427,317
340214,326,423,332
340215,333,425,343
340216,339,427,349
340217,347,428,357
340218,351,429,363
340219,360,432,378
340220,368,431,386
340221,372,430,392
340222,369,430,387
340223,361,431,377
340224,352,435,364
340225,345,433,355
340226,339,435,346
340227,333,435,337
340228,328,435,333
340229,319,435,320
340230,312,435,312
340231,307,436,306
340232,312,431,313
340233,319,435,322
340234,330,435,337
340235,337,435,345
340236,342,429,353
340237,349,429,360
340238,352,427,365
340239,360,427,374
340240,366,427,385
340241,371,426,389
340242,366,426,383
340243,358,427,374
340244,349,429,361
340245,342,430,352
340246,338,433,345
340247,331,434,335
340248,327,432,331
340249,318,435,320
340250,312,432,311
340251,306,432,305
340252,311,430,310
340253,319,433,319
340254,329,433,334
340255,337,436,346
340256,346,437,354
340257,352,441,365
340258,358,439,370
340259,367,439,384
340260,374,439,394
340261,377,434,398
340262,373,435,391
340263,365,433,379
340264,356,433,366
340265,346,432,355
340266,339,434,347
340267,331,434,338
340268,330,433,334
340269,320,434,320
340270,311,435,312
340271,308,432,306
340272,313,434,313
340273,320,435,322
340274,329,435,336
340275,339,436,347
340276,346,439,355
340277,354,440,366
340278,359,443,374
340279,370,448,387
340280,378,448,398
340281,384,448,403
340282,378,447,397
340283,371,444,389
340284,360,444,374
340285,353,442,364
340286,346,445,356
340287,342,444,347
340288,336,447,341
340289,327,447,329
340290,321,448,321
340291,317,445,316
340292,321,449,322
340293,328,449,332
340294,340,451,346
340295,349,450,356
340296,356,451,368
340297,363,455,376
340298,369,453,381
340299,376,450,394
340300,384,454,404
340301,388,451,408
340302,381,448,401
340303,374,446,390
340304,362,444,375
340305,355,447,365
340306,348,446,356
340307,341,442,347
340308,336,445,340
340309,328,444,329
340310,319,447,320
340311,315,447,318
340312,321,449,322
340313,328,447,330
340314,338,443,344
340315,343,446,353
340316,352,444,362
340317,359,446,370
340318,363,446,377
340319,372,446,389
340320,379,446,398
340321,384,448,405
340322,381,446,399
340323,376,447,389
340324,364,449,375
340325,356,448,367
340326,349,448,359
340327,341,448,349
340328,339,448,343
340329,331,450,332
340330,323,450,323
340331,320,450,319
340332,323,450,325
340333,328,450,332
340334,340,448,345
340335,348,449,355
340336,355,450,363
340337,361,449,371
340338,366,450,378
340339,375,449,391
340340,382,449,400
340341,384,450,405
340342,383,450,399
340343,376,449,391
340344,365,449,377
340345,358,448,367
340346,350,450,359
340347,344,446,350
340348,338,448,343
340349,328,448,331
340350,324,446,321
340351,317,446,316
340352,322,447,320
340353,328,447,332
340354,338,448,343
340355,346,448,355
340356,352,448,362
340357,359,447,373
340358,366,449,379
340359,374,451,392
340360,383,450,401
340361,386,450,407
340362,384,449,401
340363,375,449,390
340364,365,448,377
340365,357,449,365
340366,349,447,358
340367,341,447,347
340368,337,449,344
340369,328,449,331
340370,323,455,324
340371,322,458,321
340372,326,460,328
340373,335,459,338
340374,346,459,352
340375,355,460,362
340376,360,459,371
340377,367,459,380
340378,372,458,387
340379,381,460,399
340380,388,460,407
340381,394,460,413
340382,390,459,408
340383,383,459,400
340384,372,457,384
340385,366,457,375
340386,357,458,366
340387,351,459,356
340388,346,458,351
340389,335,452,337
340390,327,454,327
340391,323,452,321
340392,326,450,327
340393,332,450,335
340394,342,450,347
340395,350,451,356
340396,356,451,365
340397,362,450,374
340398,367,448,381
340399,376,449,392
340400,382,448,401
340401,387,448,406
340402,384,450,401
340403,375,450,392
340404,365,451,379
340405,359,451,369
340406,352,452,361
340407,346,451,352
340408,340,452,346
340409,334,452,333
340410,325,452,325
340411,321,451,320
340412,323,450,324
340413,332,451,334
340414,341,448,346
340415,348,449,356
340416,355,446,363
340417,360,447,372
340418,366,447,377
340419,374,447,390
340420,380,448,400
340421,385,446,406
340422,381,447,399
340423,375,448,390
340424,364,447,376
340425,354,442,366
340426,347,445,355
340427,342,446,347
340428,337,444,341
340429,326,445,329
340430,319,444,319
340431,315,444,312
340432,317,445,318
340433,325,441,328
340434,335,445,342
340435,343,445,351
340436,352,445,360
340437,358,448,372
340438,363,448,378
340439,373,445,390
340440,380,448,398
340441,384,449,406
340442,382,447,400
340443,375,448,391
340444,365,449,377
340445,358,450,367
340446,350,448,359
340447,344,449,349
340448,339,448,342
340449,332,451,331
340450,326,453,325
340451,322,456,320
340452,325,454,327
340453,333,457,336
340454,345,458,350
340455,353,458,361
340456,360,460,370
340457,367,460,379
340458,371,458,386
340459,381,459,397
340460,388,459,408
340461,392,457,413
340462,387,457,408
340463,382,457,398
340464,369,458,383
340465,364,459,374
340466,356,459,365
340467,350,455,356
340468,344,459,350
340469,336,456,338
340470,329,454,328
340471,323,454,322
340472,325,451,325
340473,333,451,333
340474,342,451,348
340475,349,450,356
340476,355,448,365
340477,361,447,374
340478,365,448,380
340479,373,445,390
340480,382,449,400
340481,384,451,406
340482,384,448,401
340483,376,450,392
340484,366,450,377
340485,359,451,369
340486,350,448,360
340487,346,451,352
340488,340,450,345
340489,330,449,332
340490,324,449,323
340491,318,447,318
340492,322,448,323
340493,330,447,331
340494,340,447,345
340495,346,445,354
340496,354,448,364
340497,361,449,371
340498,366,448,379
340499,375,448,392
340500,381,449,399
340501,387,449,407
340502,384,453,401
340503,376,452,392
340504,365,453,379
340505,360,450,369
340506,353,451,362
340507,347,450,353
340508,341,452,347
340509,335,454,335
340510,325,455,327
340511,323,456,322
340512,325,455,328
340513,336,458,336
340514,345,457,352
340515,352,458,361
340516,360,456,370
340517,365,456,378
340518,370,455,383
340519,378,462,396
340520,386,457,404
340521,390,456,411
340522,388,456,404
340523,381,459,399
340524,372,457,385
340525,365,462,377
340526,360,467,368
340527,353,468,361
340528,352,468,356
340529,342,468,347
340530,334,467,335
340531,331,463,330
340532,333,461,332
340533,338,461,340
340534,347,459,353
340535,353,458,361
340536,360,458,371
340537,366,457,379
340538,372,458,383
340539,380,456,397
340540,388,456,405
340541,391,458,412
340542,389,459,408
340543,381,462,399
340544,374,460,386
340545,367,459,377
340546,359,463,367
340547,353,464,358
340548,348,459,354
340549,337,460,340
340550,329,457,331
340551,326,457,323
340552,330,455,329
340553,334,456,337
340554,345,466,351
340555,353,454,360
340556,358,457,369
340557,367,459,378
340558,371,457,385
340559,380,458,398
340560,387,458,407
340561,392,455,411
340562,389,460,407
340563,381,456,396
340564,369,455,383
340565,362,451,372
340566,355,455,364
340567,349,451,353
340568,344,450,348
340569,334,451,336
340570,325,452,326
340571,321,452,322
340572,324,451,325
340573,331,451,334
340574,341,452,346
340575,349,453,357
340576,356,453,366
340577,363,453,375
340578,368,456,382
340579,378,461,396
340580,387,463,408
340581,395,468,416
340582,394,467,412
340583,387,468,404
340584,377,464,389
340585,367,461,379
340586,360,460,370
340587,354,458,359
340588,347,457,353
340589,337,459,340
340590,332,461,331
340591,329,463,328
340592,333,467,333
340593,339,465,343
340594,351,468,358
340595,359,470,367
340596,365,468,377
340597,372,464,385
340598,377,464,391
340599,385,467,404
340600,395,470,413
340601,402,471,420
340602,397,472,417
340603,392,472,407
340604,382,473,395
340605,376,472,384
340606,368,474,376
340607,360,472,365
340608,355,470,361
340609,346,470,348
340610,336,468,336
340611,332,465,331
340612,335,461,334
340613,341,459,343
340614,349,461,356
340615,357,461,365
340616,361,461,373
340617,369,460,381
340618,373,461,388
340619,383,462,399
340620,391,460,409
340621,394,459,415
340622,392,459,409
340623,383,458,399
340624,372,458,384
340625,363,458,375
340626,355,457,365
340627,349,458,357
340628,346,458,351
340629,337,461,338
340630,332,463,331
340631,328,464,327
340632,334,469,333
340633,341,469,344
340634,350,469,357
340635,360,468,368
340636,365,465,376
340637,372,465,384
340638,377,461,388
340639,383,462,400
340640,393,461,410
340641,395,462,417
340642,392,460,411
340643,385,461,400
340644,374,462,387
340645,367,462,378
340646,358,461,368
340647,354,464,360
340648,349,464,355
340649,341,465,344
340650,334,467,334
340651,329,463,329
340652,333,468,334
340653,339,464,344
340654,350,467,358
340655,358,469,368
340656,368,470,377
340657,376,473,387
340658,381,476,396
340659,388,475,408
340660,397,473,418
340661,404,472,424
340662,399,475,419
340663,392,471,408
340664,380,469,394
340665,372,466,383
340666,364,465,372
340667,356,465,363
340668,351,463,355
340669,343,462,344
340670,331,460,333
340671,327,457,326
340672,331,456,331
340673,336,460,339
340674,345,457,350
340675,353,457,361
340676,361,455,369
340677,366,456,378
340678,371,457,385
340679,380,458,396
340680,389,461,407
340681,393,463,414
340682,392,463,410
340683,386,467,404
340684,378,470,391
340685,372,472,383
340686,365,471,373
340687,357,469,365
340688,353,465,358
340689,344,466,348
340690,335,467,335
340691,331,465,331
340692,333,467,335
340693,340,468,345
340694,352,468,358
340695,359,468,368
340696,367,467,378
340697,373,467,386
340698,375,466,391
340699,385,463,402
340700,392,464,412
340701,397,463,416
340702,392,462,411
340703,386,462,401
340704,374,460,388
340705,366,459,376
340706,357,456,366
340707,353,457,360
340708,346,460,353
340709,339,462,342
340710,332,466,334
340711,331,468,329
340712,335,466,335
340713,341,468,345
340714,350,466,357
340715,359,463,367
340716,365,460,376
340717,371,462,382
340718,375,461,388
340719,384,461,401
340720,390,461,407
340721,396,460,415
340722,393,460,411
340723,385,464,402
340724,373,464,389
340725,369,466,380
340726,362,466,372
340727,356,466,362
340728,351,465,358
340729,342,463,345
340730,332,460,334
340731,329,461,328
340732,331,461,332
340733,339,460,339
340734,348,458,354
340735,355,460,364
340736,363,460,372
340737,367,459,379
340738,373,459,388
340739,381,461,398
340740,391,465,409
340741,395,463,414
340742,392,463,411
340743,385,462,402
340744,376,463,387
340745,368,460,378
340746,358,459,368
340747,350,454,356
340748,346,455,350
340749,335,455,336
340750,328,450,328
340751,323,451,320
340752,325,452,324
340753,332,453,334
340754,341,451,348
340755,349,451,356
340756,355,453,366
340757,363,453,373
340758,367,455,382
340759,375,455,394
340760,384,455,405
340761,392,458,412
340762,389,460,408
340763,383,459,400
340764,372,462,386
340765,365,457,376
340766,358,462,367
340767,351,460,360
340768,347,459,353
340769,339,460,343
340770,333,465,333
340771,329,465,327
340772,331,464,333
340773,339,463,342
340774,348,459,355
340775,356,462,366
340776,364,462,374
340777,368,462,383
340778,376,466,388
340779,384,467,401
340780,393,468,413
340781,398,468,418
340782,396,469,415
340783,389,470,406
340784,378,466,391
340785,370,465,381
340786,362,463,372
340787,355,461,363
340788,350,461,356
340789,343,460,345
340790,334,463,335
340791,328,462,328
340792,332,463,331
340793,338,461,341
340794,348,464,355
340795,355,461,364
340796,363,462,374
340797,368,458,381
340798,371,460,386
340799,382,460,399
340800,388,459,408
340801,395,458,414
340802,391,458,409
340803,383,458,400
340804,372,459,385
340805,364,459,376
340806,356,459,367
340807,352,460,360
340808,347,458,353
340809,337,459,341
340810,329,459,328
340811,326,460,324
340812,329,460,329
340813,337,458,339
340814,345,458,353
340815,354,459,362
340816,361,459,371
340817,367,456,379
340818,373,458,386
340819,380,459,396
340820,390,460,407
340821,395,461,412
340822,391,461,410
340823,385,461,401
340824,374,458,386
340825,365,459,377
340826,357,462,366
340827,353,461,359
340828,348,463,354
340829,342,465,344
340830,334,461,335
340831,327,460,328
340832,331,462,332
340833,338,458,340
340834,346,459,352
340835,353,459,363
340836,362,460,371
340837,368,461,382
340838,373,462,387
340839,385,466,400
340840,391,466,410
340841,397,470,419
340842,395,467,414
340843,389,470,407
340844,379,466,391
340845,371,469,383
340846,363,466,373
340847,357,466,364
340848,351,463,358
340849,343,463,346
340850,335,464,336
340851,330,463,329
340852,331,464,332
340853,340,466,343
340854,349,467,356
340855,357,466,366
340856,365,469,375
340857,371,467,384
340858,377,469,391
340859,387,467,404
340860,395,471,413
340861,401,472,420
340862,397,472,415
340863,391,473,407
340864,380,470,393
340865,372,469,385
340866,365,468,374
340867,359,467,364
340868,353,465,360
340869,343,463,346
340870,335,462,336
340871,331,462,330
340872,332,463,332
340873,339,462,342
340874,349,462,355
340875,357,465,364
340876,365,466,374
340877,371,467,383
340878,378,468,391
340879,385,469,403
340880,393,469,414
340881,399,467,421
340882,398,469,415
340883,389,467,405
340884,379,466,393
340885,370,464,381
340886,362,465,372
340887,354,460,362
340888,350,460,355
340889,340,461,344
340890,334,462,333
340891,327,462,327
340892,331,463,331
340893,337,459,342
340894,346,461,354
340895,354,462,363
340896,364,460,373
340897,369,462,383
340898,374,464,387
340899,385,463,402
340900,392,468,413
340901,399,470,419
340902,397,468,416
340903,392,471,407
340904,380,470,394
340905,372,469,384
340906,364,463,374
340907,358,466,365
340908,352,464,357
340909,343,462,347
340910,334,461,334
340911,329,461,327
340912,332,460,331
340913,337,459,340
340914,345,459,352
340915,353,458,362
340916,361,457,370
340917,367,459,380
340918,373,460,386
340919,382,458,397
340920,388,461,408
340921,393,462,414
340922,392,461,410
340923,385,462,402
340924,376,463,389
340925,367,462,378
340926,360,462,369
340927,353,459,361
340928,348,461,354
340929,340,462,344
340930,333,463,334
340931,328,464,329
340932,332,465,333
340933,340,465,342
340934,349,467,357
340935,359,468,366
340936,368,468,377
340937,371,472,386
340938,379,470,393
340939,387,472,404
340940,397,473,414
340941,402,470,421
340942,399,471,417
340943,391,470,407
340944,381,469,396
340945,374,469,383
340946,366,468,371
340947,359,467,365
340948,354,469,359
340949,346,468,349
340950,339,470,338
340951,334,467,332
340952,335,469,337
340953,343,467,344
340954,352,464,357
340955,359,462,367
340956,365,463,376
340957,370,464,384
340958,377,465,390
340959,385,466,402
340960,393,467,412
340961,398,468,419
340962,396,465,414
340963,389,467,407
340964,379,469,393
340965,372,469,384
340966,364,467,374
340967,357,468,365
340968,353,468,358
340969,344,465,347
340970,337,466,337
340971,330,465,329
340972,332,463,334
340973,339,462,343
340974,347,466,353
340975,356,462,364
340976,364,466,375
340977,370,463,382
340978,377,466,390
340979,385,466,401
340980,394,467,412
340981,399,470,419
340982,397,468,417
340983,390,466,406
340984,379,467,393
340985,371,470,383
340986,364,467,373
340987,357,466,365
340988,351,466,358
340989,345,464,347
340990,336,464,337
340991,329,463,330
340992,334,465,335
340993,338,463,342
340994,349,462,354
340995,357,465,365
340996,364,464,374
340997,371,466,384
340998,378,465,390
340999,384,464,401
341000,392,465,411
341001,398,465,419
341002,395,463,413
341003,388,465,405
341004,378,465,391
341005,369,464,382
341006,362,465,372
341007,356,466,364
341008,350,462,357
341009,342,465,344
341010,333,464,334
341011,330,462,327
341012,332,463,333
341013,338,463,342
341014,349,463,355
341015,355,463,364
341016,364,465,374
341017,370,466,383
341018,377,464,389
341019,385,468,401
341020,393,470,412
341021,399,469,420
341022,397,470,416
341023,391,470,409
341024,380,471,395
341025,373,471,385
341026,365,468,373
341027,359,467,367
341028,353,469,360
341029,345,468,348
341030,338,467,338
341031,332,468,333
341032,336,470,336
341033,343,471,345
341034,352,471,359
341035,361,470,369
341036,368,471,378
341037,373,472,388
341038,378,471,394
341039,389,472,404
341040,395,471,416
341041,401,471,422
341042,399,469,418
341043,393,469,410
341044,383,472,395
341045,373,470,385
341046,366,469,373
341047,360,469,367
341048,353,472,361
341049,345,469,349
341050,339,469,339
341051,333,470,332
341052,336,472,337
341053,343,467,347
341054,351,472,358
341055,361,471,369
341056,370,472,380
341057,375,471,389
341058,382,470,395
341059,388,471,406
341060,396,470,416
341061,401,470,421
341062,400,470,417
341063,392,470,408
341064,381,470,395
341065,374,465,384
341066,366,467,374
341067,359,468,366
341068,352,467,359
341069,344,464,349
341070,337,467,336
341071,331,466,332
341072,333,466,333
341073,341,465,343
341074,351,466,355
341075,358,467,365
341076,364,467,374
341077,371,466,385
341078,377,464,390
341079,386,467,402
341080,393,464,412
341081,401,470,420
341082,398,469,415
341083,391,467,406
341084,380,467,393
341085,372,470,385
341086,365,468,376
341087,358,472,367
341088,354,468,360
341089,346,469,347
341090,338,467,336
341091,332,469,331
341092,334,466,334
341093,340,466,344
341094,350,466,357
341095,357,467,366
341096,364,468,376
341097,372,467,384
341098,378,470,392
341099,387,469,403
341100,393,466,413
341101,400,470,420
341102,397,471,417
341103,392,470,409
341104,383,472,395
341105,373,470,385
341106,367,470,376
341107,359,472,368
341108,354,471,364
341109,347,471,352
341110,339,472,341
341111,335,473,335
341112,337,473,339
341113,345,473,348
341114,356,473,361
341115,362,473,370
341116,370,474,380
341117,376,472,388
341118,380,474,394
341119,390,472,407
341120,397,472,417
341121,402,472,424
341122,400,472,419
341123,392,472,410
341124,384,469,396
341125,373,472,386
341126,367,474,376
341127,360,472,368
341128,356,472,361
341129,347,471,351
341130,338,471,340
341131,333,471,334
341132,336,470,338
341133,344,470,347
341134,353,471,359
341135,362,471,370
341136,369,472,380
341137,376,472,388
341138,380,470,393
341139,388,472,405
341140,399,475,418
341141,402,473,424
341142,399,475,420
341143,393,471,410
341144,384,475,398
341145,376,475,388
341146,369,475,377
341147,363,475,371
341148,359,472,364
341149,350,475,353
341150,339,474,340
341151,336,473,335
341152,338,472,339
341153,346,471,349
341154,355,472,360
341155,363,475,372
341156,369,473,380
341157,378,474,390
341158,382,475,396
341159,391,475,409
341160,398,474,418
341161,404,473,425
341162,402,477,423
341163,396,476,413
341164,387,478,401
341165,377,477,392
341166,369,478,381
341167,364,477,373
341168,361,477,366
341169,353,477,357
341170,343,477,344
341171,337,476,336
341172,340,478,341
341173,348,472,349
341174,357,476,362
341175,363,475,372
341176,372,476,381
341177,379,476,390
341178,382,475,398
341179,389,478,409
341180,400,477,420
341181,405,477,425
341182,404,477,423
341183,397,475,415
341184,386,477,401
341185,377,477,390
341186,370,477,381
341187,364,478,372
341188,359,476,366
341189,351,476,354
341190,343,476,343
341191,337,476,338
341192,339,475,341
341193,346,476,350
341194,356,475,364
341195,364,475,372
341196,372,475,383
341197,378,476,391
341198,383,476,398
341199,390,475,408
341200,399,477,419
341201,405,477,425
341202,402,475,423
341203,395,476,413
341204,387,477,400
341205,379,477,390
341206,371,477,380
341207,364,475,371
341208,358,477,364
341209,352,475,355
341210,343,475,344
341211,337,474,337
341212,338,474,341
341213,347,473,349
341214,354,474,361
341215,364,475,372
341216,370,476,381
341217,375,476,390
341218,382,477,396
341219,391,476,408
341220,399,472,418
341221,405,476,425
341222,403,476,423
341223,395,477,412
341224,386,475,401
341225,377,475,390
341226,368,475,379
341227,364,475,372
341228,358,473,365
341229,351,476,354
341230,342,474,342
341231,336,470,336
341232,338,473,339
341233,345,474,348
341234,355,471,361
341235,361,474,372
341236,370,471,381
341237,377,474,390
341238,381,474,395
341239,389,474,408
341240,397,475,418
341241,402,475,425
341242,400,475,422
341243,395,474,411
341244,384,473,400
341245,376,473,387
341246,371,475,379
341247,364,474,371
341248,357,475,365
341249,349,474,354
341250,342,471,343
341251,335,473,336
341252,338,473,338
341253,346,472,349
341254,354,474,362
341255,363,474,371
341256,370,473,382
341257,376,473,387
341258,382,473,396
341259,389,473,407
341260,398,475,417
341261,404,474,425
341262,400,473,422
341263,396,473,413
341264,385,472,400
341265,376,477,390
341266,369,476,380
341267,362,473,371
341268,356,475,365
341269,349,474,353
341270,341,475,343
341271,335,474,335
341272,339,476,340
341273,346,473,349
341274,354,473,360
341275,364,474,371
341276,370,470,380
341277,377,474,389
341278,382,475,396
341279,390,474,406
341280,398,475,418
341281,404,471,425
341282,404,474,422
341283,393,475,412
341284,384,474,399
341285,377,474,388
341286,368,475,378
341287,362,472,369
341288,359,473,363
341289,349,472,354
341290,340,473,341
341291,334,473,335
341292,337,472,339
341293,345,470,347
341294,353,474,358
341295,363,472,370
341296,369,474,380
341297,376,474,389
341298,383,474,395
341299,389,473,408
341300,397,474,417
341301,405,474,423
341302,403,474,420
341303,396,471,411
341304,384,473,399
341305,378,474,388
341306,368,472,379
341307,361,471,370
341308,357,471,363
341309,346,473,351
341310,340,473,341
341311,335,470,335
341312,337,470,339
341313,343,471,347
341314,354,473,360
341315,361,472,370
341316,370,472,381
341317,376,472,387
341318,379,472,394
341319,388,473,404
341320,396,468,414
341321,403,473,423
341322,401,471,419
341323,394,472,410
341324,385,474,397
341325,376,472,388
341326,368,473,379
341327,361,472,369
341328,356,470,361
341329,348,471,352
341330,340,472,340
341331,333,472,334
341332,336,471,335
341333,343,471,345
341334,353,472,356
341335,362,471,367
341336,370,471,379
341337,376,472,387
341338,379,472,394
341339,389,474,405
341340,397,472,416
341341,402,474,423
341342,401,474,420
341343,393,473,410
341344,386,471,398
341345,377,470,388
341346,369,474,377
341347,362,470,370
341348,357,473,364
341349,349,472,352
341350,340,470,342
341351,335,470,334
341352,337,471,338
341353,343,470,346
341354,353,470,358
341355,362,471,369
341356,370,473,379
341357,374,473,387
341358,381,472,395
341359,389,473,405
341360,396,474,417
341361,403,472,423
341362,402,473,420
341363,394,473,412
341364,383,473,398
341365,375,474,388
341366,367,473,378
341367,361,473,370
341368,356,472,363
341369,350,474,353
341370,341,472,343
341371,335,473,336
341372,338,470,338
341373,344,472,348
341374,352,471,358
341375,361,471,369
341376,370,474,379
341377,376,472,388
341378,382,473,395
341379,389,473,405
341380,398,471,416
341381,403,471,423
341382,402,474,421
341383,395,471,411
341384,385,472,397
341385,377,474,386
341386,368,472,377
341387,362,472,369
341388,357,474,363
341389,349,475,353
341390,341,473,342
341391,334,474,335
341392,337,469,337
341393,344,472,347
341394,353,472,360
341395,362,473,370
341396,370,474,378
341397,376,471,387
341398,381,473,392
341399,388,471,405
341400,396,474,416
341401,403,474,424
341402,403,475,422
341403,393,471,413
341404,383,472,400
341405,377,473,389
341406,369,472,378
341407,363,474,372
341408,358,474,364
341409,349,474,353
341410,343,474,344
341411,337,473,335
341412,338,472,338
341413,345,473,348
341414,353,474,359
341415,363,472,371
341416,370,474,382
341417,376,472,388
341418,382,473,395
341419,389,474,405
341420,396,475,418
341421,403,474,425
341422,403,472,422
341423,396,475,413
341424,386,475,400
341425,376,474,389
341426,369,473,379
341427,363,474,371
341428,355,473,363
341429,348,474,353
341430,342,475,342
341431,335,470,335
341432,338,473,338
341433,345,472,346
341434,352,473,360
341435,363,470,370
341436,369,474,380
341437,376,470,388
341438,381,474,395
341439,389,473,405
341440,398,475,417
341441,404,475,423
341442,403,475,422
341443,395,474,412
341444,386,469,399
341445,377,475,389
341446,370,474,379
341447,363,474,371
341448,357,475,363
341449,351,473,355
341450,342,475,343
341451,338,474,336
341452,337,472,337
341453,346,472,348
341454,354,473,359
341455,360,472,369
341456,371,473,380
341457,376,475,386
341458,382,474,395
341459,390,475,406
341460,396,475,417
341461,405,475,425
341462,403,475,422
341463,396,471,412
341464,386,475,400
341465,377,474,387
341466,369,475,380
341467,364,475,371
341468,358,475,364
341469,350,473,356
341470,344,474,345
341471,337,474,336
341472,338,474,338
341473,344,474,349
341474,354,474,359
341475,362,470,370
341476,372,475,382
341477,378,471,389
341478,383,475,397
341479,390,476,407
341480,399,475,417
341481,405,476,426
341482,403,475,424
341483,395,476,412
341484,386,475,400
341485,378,477,390
341486,371,475,379
341487,364,475,373
341488,357,476,364
341489,353,474,355
341490,343,475,343
341491,335,474,336
341492,339,471,338
341493,346,475,348
341494,354,471,360
341495,362,474,370
341496,370,476,379
341497,376,472,389
341498,382,475,396
341499,390,476,406
341500,398,475,418
341501,404,474,425
341502,402,476,423
341503,394,472,413
341504,386,475,401
341505,377,473,390
341506,370,474,379
341507,364,474,371
341508,359,476,365
341509,352,474,356
341510,344,474,344
341511,338,474,336
341512,339,471,339
341513,345,473,348
341514,353,472,359
341515,361,473,369
341516,370,475,381
341517,377,476,390
341518,382,475,395
341519,389,475,405
341520,398,476,416
341521,404,472,424
341522,401,476,422
341523,396,475,413
341524,387,475,402
341525,378,476,389
341526,370,475,380
341527,363,475,371
341528,358,474,365
341529,351,475,354
341530,343,473,344
341531,335,473,335
341532,338,472,338
341533,345,475,346
341534,353,477,359
341535,362,474,371
341536,368,473,379
341537,376,474,388
341538,382,472,395
341539,388,474,405
341540,397,474,416
341541,404,475,425
341542,403,474,422
341543,395,475,413
341544,386,473,401
341545,377,474,390
341546,370,474,380
341547,362,475,371
341548,356,476,365
341549,351,472,355
341550,343,474,343
341551,336,474,335
341552,337,474,338
341553,345,475,347
341554,353,475,359
341555,362,474,371
341556,371,475,379
341557,377,473,388
341558,383,473,396
341559,390,473,407
341560,400,476,417
341561,405,475,425
341562,404,475,424
341563,396,475,414
341564,387,477,402
341565,379,477,390
341566,372,475,382
341567,363,474,372
341568,359,475,366
341569,351,475,356
341570,343,472,345
341571,336,471,337
341572,338,474,338
341573,345,472,347
341574,353,474,357
341575,362,474,372
341576,372,474,382
341577,376,476,390
341578,381,475,397
341579,388,476,406
341580,399,475,418
341581,405,477,426
341582,403,475,424
341583,395,477,414
341584,387,478,400
341585,378,476,389
341586,370,475,381
341587,364,476,373
341588,360,473,365
341589,352,473,355
341590,342,475,345
341591,337,476,337
341592,339,473,339
341593,347,473,348
341594,355,475,361
341595,363,475,372
341596,371,476,383
341597,377,475,390
341598,381,477,397
341599,390,474,407
341600,398,477,418
341601,404,476,425
341602,404,477,423
341603,397,478,415
341604,388,475,403
341605,379,475,390
341606,371,476,380
341607,366,474,373
341608,359,475,365
341609,352,476,356
341610,343,475,346
341611,337,474,337
341612,339,473,339
341613,344,473,349
341614,352,475,359
341615,362,473,371
341616,369,475,381
341617,375,474,388
341618,382,475,396
341619,390,475,406
341620,399,477,418
341621,405,476,424
341622,403,473,423
341623,396,474,413
341624,386,476,402
341625,377,476,390
341626,370,472,379
341627,364,472,372
341628,358,472,365
341629,349,473,354
341630,342,473,344
341631,336,473,336
341632,337,472,337
341633,342,471,347
341634,352,472,358
341635,361,470,369
341636,370,471,379
341637,374,471,385
341638,380,472,394
341639,386,470,404
341640,398,474,415
341641,403,475,423
341642,402,473,421
341643,394,473,412
341644,385,472,400
341645,377,473,388
341646,369,473,379
341647,362,471,371
341648,357,472,364
341649,351,472,354
341650,341,470,343
341651,336,471,334
341652,336,473,338
341653,343,470,346
341654,351,472,359
341655,361,472,370
341656,369,473,380
341657,373,473,388
341658,380,472,394
341659,388,471,405
341660,395,472,414
341661,403,474,422
341662,401,472,420
341663,394,471,412
341664,383,470,399
341665,374,471,387
341666,366,471,377
341667,362,471,368
341668,354,470,361
341669,350,470,351
341670,339,470,340
341671,334,470,332
341672,334,469,336
341673,341,470,344
341674,349,469,353
341675,359,470,366
341676,368,470,376
341677,372,470,386
341678,379,466,391
341679,386,467,401
341680,394,468,412
341681,400,467,421
341682,399,469,419
341683,394,468,409
341684,383,468,397
341685,371,467,385
341686,366,465,374
341687,359,465,366
341688,354,468,359
341689,348,468,349
341690,339,467,339
341691,333,467,331
341692,333,468,334
341693,341,469,343
341694,350,470,357
341695,360,471,368
341696,367,472,378
341697,373,473,386
341698,380,470,393
341699,386,469,403
341700,395,469,415
341701,401,468,422
341702,401,470,420
341703,395,471,411
341704,386,473,400
341705,376,476,389
341706,369,476,381
341707,364,477,372
341708,358,475,365
341709,352,476,356
341710,342,474,344
341711,336,475,335
341712,338,469,338
341713,345,472,347
341714,352,470,359
341715,361,472,369
341716,369,471,378
341717,375,472,385
341718,379,473,392
341719,388,472,404
341720,395,473,415
341721,403,474,423
341722,402,474,421
341723,395,473,411
341724,386,474,398
341725,376,473,388
341726,367,470,377
341727,361,470,369
341728,355,470,361
341729,349,470,351
341730,340,469,341
1742069795340,NEW REP,,
341731,332,464,333
341732,333,467,333
341733,339,467,342
341734,349,467,354
341735,358,467,363
341736,365,467,374
341737,369,465,383
341738,376,467,391
341739,384,464,398
341740,393,467,412
341741,398,467,420
341742,398,465,417
341743,391,466,407
341744,382,466,396
341745,372,468,385
341746,363,467,373
341747,359,465,366
341748,352,465,358
341749,346,465,348
341750,337,464,338
341751,331,463,330
341752,333,466,333
341753,340,466,341
341754,349,466,353
341755,358,467,364
341756,366,467,375
341757,369,467,382
341758,377,468,389
341759,382,466,397
341760,391,465,409
341761,398,464,418
341762,396,464,416
341763,390,463,406
341764,379,464,394
341765,370,463,383
341766,363,460,371
341767,356,462,365
341768,351,464,356
341769,344,464,347
341770,336,463,334
341771,329,463,328
341772,330,461,329
341773,337,463,340
341774,344,461,351
341775,355,461,363
341776,361,463,373
341777,368,461,381
341778,375,465,388
341779,382,465,398
341780,391,466,409
341781,397,465,418
341782,396,465,415
341783,390,467,406
341784,381,466,394
341785,370,465,384
341786,363,464,374
341787,358,464,365
341788,351,462,358
341789,344,463,347
341790,335,460,336
341791,328,458,327
341792,329,459,328
341793,334,459,334
341794,344,458,348
341795,352,460,360
341796,360,459,370
341797,365,460,377
341798,371,457,384
341799,378,458,394
341800,387,457,406
341801,394,461,414
341802,392,459,412
341803,387,459,403
341804,377,458,391
341805,367,458,379
341806,360,458,368
341807,353,460,361
341808,347,460,354
341809,340,460,346
341810,333,463,332
341811,327,463,327
341812,329,462,328
341813,336,461,335
341814,345,461,349
341815,354,460,360
341816,360,456,371
341817,367,459,378
341818,371,458,384
341819,373,456,391
341820,383,456,402
341821,390,456,412
341822,389,455,410
341823,382,454,400
341824,371,453,386
341825,364,454,374
341826,355,452,364
341827,347,451,356
341828,340,449,349
341829,334,449,339
341830,325,448,327
341831,320,448,319
341832,321,450,319
341833,326,448,328
341834,336,451,340
341835,346,452,353
341836,354,453,364
341837,360,453,373
341838,367,456,380
341839,375,457,390
341840,384,460,403
341841,391,460,412
341842,392,462,411
341843,386,462,403
341844,377,461,393
341845,369,462,380
341846,358,459,370
341847,353,458,361
341848,347,455,353
341849,339,454,343
341850,330,453,331
341851,324,456,323
341852,326,455,325
341853,331,457,335
341854,341,457,346
341855,351,457,357
341856,358,458,367
341857,364,458,374
341858,368,455,382
341859,375,454,390
341860,381,452,398
341861,388,450,408
341862,385,448,403
341863,378,447,394
341864,369,448,382
341865,359,447,369
341866,350,444,359
341867,348,447,353
341868,340,450,347
341869,333,449,337
341870,325,448,325
341871,318,449,317
341872,319,449,319
341873,326,448,329
341874,335,448,339
341875,344,449,352
341876,351,446,360
341877,356,448,368
341878,362,448,374
341879,370,447,385
341880,377,447,396
341881,384,449,405
341882,383,452,403
341883,378,451,394
341884,369,454,384
341885,362,453,373
341886,354,452,363
341887,347,451,355
341888,342,452,347
341889,336,452,338
341890,327,450,327
341891,321,448,317
341892,320,447,320
341893,327,449,330
341894,336,451,341
341895,344,451,353
341896,354,452,363
341897,360,453,370
341898,363,452,378
341899,370,452,387
341900,381,450,398
341901,387,448,408
341902,385,448,404
341903,377,445,393
341904,369,443,380
341905,356,442,369
341906,349,443,356
341907,341,441,350
341908,336,439,342
341909,330,443,332
341910,321,440,322
341911,315,442,315
341912,315,444,316
341913,323,446,326
341914,333,447,337
341915,342,448,350
341916,352,448,360
341917,358,449,369
341918,363,452,375
341919,369,451,385
341920,381,455,399
341921,389,456,410
341922,389,458,409
341923,381,456,399
341924,374,456,388
341925,363,453,374
341926,355,447,364
341927,348,445,355
341928,341,444,346
341929,333,444,336
341930,323,444,323
341931,317,447,314
341932,317,448,318
341933,327,447,328
341934,336,446,340
341935,346,450,352
341936,352,452,362
341937,360,452,370
341938,366,453,380
341939,373,450,389
341940,382,454,399
341941,388,450,407
341942,387,450,405
341943,379,451,396
341944,370,448,383
341945,361,452,372
341946,355,453,362
341947,349,453,356
341948,342,451,348
341949,338,448,339
341950,326,450,327
341951,318,446,317
341952,319,445,317
341953,325,442,327
341954,332,441,337
341955,342,440,349
341956,350,445,358
341957,354,444,365
341958,360,442,374
341959,368,444,382
341960,377,446,394
341961,383,445,404
341962,381,448,401
341963,376,448,393
341964,369,445,382
341965,356,446,369
341966,350,446,357
341967,344,442,352
341968,338,446,344
341969,333,448,336
341970,323,446,325
341971,320,450,318
341972,320,450,320
341973,328,450,329
341974,335,451,341
341975,344,450,352
341976,351,451,362
341977,358,449,369
341978,363,444,377
341979,369,445,384
341980,377,445,394
341981,385,447,404
341982,384,447,402
341983,376,447,392
341984,368,448,382
341985,360,449,371
341986,353,452,360
341987,347,451,356
341988,341,448,348
341989,335,447,339
341990,325,447,325
341991,319,449,318
341992,320,445,319
341993,326,447,326
341994,333,443,337
341995,343,444,350
341996,349,442,357
341997,353,438,366
341998,360,440,372
341999,367,444,381
342000,375,444,393
342001,382,443,401
342002,382,444,399
342003,375,443,392
342004,365,444,378
342005,356,443,366
342006,349,443,358
342007,343,441,351
342008,337,441,341
342009,332,442,333
342010,321,443,321
342011,315,442,314
342012,315,443,315
342013,321,441,322
342014,330,443,333
342015,339,444,346
342016,349,445,357
342017,356,450,367
342018,362,450,375
342019,369,452,385
342020,380,452,399
342021,388,455,408
342022,388,456,406
342023,381,456,398
342024,373,456,386
342025,363,455,374
342026,355,455,364
